*FILE_COMMENT ""
*FILE_MD5 ""
*FILE_MEMO ""
*FILE_OPERATOR "NTUCHEME"
*FILE_PACKAGE_NAME ""
*FILE_PART_ID "GeneralMeasurement"
*FILE_SAMPLE "1"
*FILE_SYSTEM_NAME "MiniFlex"
*FILE_TYPE "RAS_RAW"
*FILE_USERGROUP "StandardUsers"
*FILE_VERSION "1"
*HW_ATTACHMENT_NAME_INTERNAL "StandardSampleHolder"
*HW_COUNTER_ID-0 "CUT0025"
*HW_COUNTER_ID-2 "CMC0020"
*HW_COUNTER_MONOCHRO_ID "CMC0020"
*HW_COUNTER_MONOCHRO_NAME "None"
*HW_COUNTER_MONOCHRO_NAME_INTERNAL "None"
*HW_COUNTER_NAME_INTERNAL "DteX100"
*HW_COUNTER_NAME-0 "DteX100"
*HW_COUNTER_NAME-1 "None"
*HW_COUNTER_NAME-2 "None"
*HW_COUNTER_PIXEL_SIZE "0.1"
*HW_COUNTER_SELECT_NAME "DteX100"
*HW_GONIOMETER_ID "GON0021"
*HW_GONIOMETER_NAME "Standard"
*HW_GONIOMETER_NAME_INTERNAL "Standard"
*HW_GONIOMETER_RADIUS-0 "90.0"
*HW_GONIOMETER_RADIUS-1 "114.0"
*HW_GONIOMETER_RADIUS-2 "91.5"
*HW_GONIOMETER_RADIUS-3 "150.0"
*HW_GONIOMETER_RADIUS-4 "103.4"
*HW_GONIOMETER_RADIUS-5 "150.0"
*HW_GONIOMETER_RADIUS-6 "46.6"
*HW_GONIOMETER_RADIUS-7 "150.0"
*HW_I_CBO_ID "CBO0020"
*HW_I_CBO_NAME "No_unit"
*HW_I_CBO_NAME_INTERNAL "No_unit"
*HW_I_MONOCHRO_NAME_INTERNAL "Manual"
*HW_I_OPT_ID-1 "CBO0020"
*HW_I_PRIMARY_NAME_INTERNAL "No_unit"
*HW_I_SLIT_NAME_INTERNAL "Manual"
*HW_R_ATTENUATER_AUTOMODE "0"
*HW_R_ATTENUATER_ID "ATN0020"
*HW_R_ATTENUATER_NAME "No_unit"
*HW_R_ATTENUATOR_NAME_INTERNAL "No_unit"
*HW_R_OPT_ID-1 "RCR0023"
*HW_R_OPT_ID-4 "ATN0020"
*HW_R_ROD_ID "RCR0023"
*HW_R_ROD_NAME "No_unit"
*HW_R_ROD_NAME_INTERNAL "No_unit"
*HW_R_RPS_NAME_INTERNAL "Manual"
*HW_R_RS_NAME_INTERNAL "Manual"
*HW_R_SS_NAME_INTERNAL "Manual"
*HW_SAMPLE_HOLDER_NAME_INTERNAL "None"
*HW_SAMPLE_NAME "None"
*HW_SAMPLE_NAME_INTERNAL "None"
*HW_SAMPLE_PLATE_NAME "None"
*HW_SAMPLE_PLATE_NAME_INTERNAL "None"
*HW_SAMPLE_SPACER_NAME "None"
*HW_SAMPLE_SPACER_NAME_INTERNAL "None"
*HW_USERINFO_CATALOG_NO ""
*HW_USERINFO_INSTRUMENT_ID ""
*HW_USERINFO_INSTRUMENT_NAME ""
*HW_USERINFO_INSTRUMENT_NO ""
*HW_USERINFO_MODEL ""
*HW_USERINFO_ORDER_NO ""
*HW_USERINFO_SERIAL_NO ""
*HW_USERINFO_VERIFY_INSTRUMENT_ID "00-07-fe-01-2a-ac"
*HW_VER_RCD_COUNTER_UNIT "N/A"
*HW_VER_RCD_CPU "3.4.2"
*HW_VER_RCD_FPGA "1.2.3"
*HW_VER_RCD_GONIO_UNIT "0.0.0"
*HW_VER_RCD_INCIDENT_UNIT "0.0.0"
*HW_VER_RCD_RECEIVING_UNIT "0.0.0"
*HW_VER_RCD_TYPE "RINC"
*HW_VER_XGC_CPU "3.4.2"
*HW_VER_XGC_CW "5.0.0"
*HW_VER_XGC_HV "5.0.0"
*HW_VER_XGC_RS1 "5.0.0"
*HW_VER_XGC_RS2 "N/A"
*HW_VER_XGC_RT "N/A"
*HW_VER_XGC_TYPE "RINC"
*HW_XG_CURRENT_UNIT "mA"
*HW_XG_FOCUS "0.4mm x 8mm"
*HW_XG_FOCUS_TYPE "Fine"
*HW_XG_TARGET_ATOMIC_NUMBER "29"
*HW_XG_TARGET_NAME "Cu"
*HW_XG_TYPE "Hermetic"
*HW_XG_VOLTAGE_UNIT "kV"
*HW_XG_WAVE_LENGTH_ALPHA1 "1.540593"
*HW_XG_WAVE_LENGTH_ALPHA2 "1.544414"
*HW_XG_WAVE_LENGTH_BETA "1.392246"
*HW_XG_WAVE_LENGTH_UNIT "Angstrom"
*MEAS_COND_AXIS_NAME_INTERNAL-0 "TwoThetaTheta"
*MEAS_COND_AXIS_NAME_INTERNAL-1 "IncidentSollerSlit"
*MEAS_COND_AXIS_NAME_INTERNAL-10 "ReceivingSlitBox1"
*MEAS_COND_AXIS_NAME_INTERNAL-11 "ReceivingSlitBox1"
*MEAS_COND_AXIS_NAME_INTERNAL-12 "Filter"
*MEAS_COND_AXIS_NAME_INTERNAL-13 "ReceivingSollerSlit"
*MEAS_COND_AXIS_NAME_INTERNAL-14 "ReceivingSlitBox2"
*MEAS_COND_AXIS_NAME_INTERNAL-15 "ReceivingSlitBox2"
*MEAS_COND_AXIS_NAME_INTERNAL-16 "ReceivingSlitBox2"
*MEAS_COND_AXIS_NAME_INTERNAL-17 "PHA"
*MEAS_COND_AXIS_NAME_INTERNAL-18 "RS3"
*MEAS_COND_AXIS_NAME_INTERNAL-19 "Target_TargetTime"
*MEAS_COND_AXIS_NAME_INTERNAL-2 "IncidentSlitBox"
*MEAS_COND_AXIS_NAME_INTERNAL-20 "Target_XrayOnTime"
*MEAS_COND_AXIS_NAME_INTERNAL-21 "Target_TMPTime"
*MEAS_COND_AXIS_NAME_INTERNAL-22 "Target_RPTime"
*MEAS_COND_AXIS_NAME_INTERNAL-23 "Target_FilamentTime"
*MEAS_COND_AXIS_NAME_INTERNAL-24 "Target_IG"
*MEAS_COND_AXIS_NAME_INTERNAL-25 "Target_GP"
*MEAS_COND_AXIS_NAME_INTERNAL-26 "Target_FC"
*MEAS_COND_AXIS_NAME_INTERNAL-27 "HVPS_Bias"
*MEAS_COND_AXIS_NAME_INTERNAL-28 "HVPS_HVPSTime"
*MEAS_COND_AXIS_NAME_INTERNAL-29 "HVPS_Type1Time"
*MEAS_COND_AXIS_NAME_INTERNAL-3 "IncidentSlitBox"
*MEAS_COND_AXIS_NAME_INTERNAL-30 "HVPS_Type2Time"
*MEAS_COND_AXIS_NAME_INTERNAL-31 "HVPS_Type3Time"
*MEAS_COND_AXIS_NAME_INTERNAL-32 "CW_IERTime"
*MEAS_COND_AXIS_NAME_INTERNAL-33 "CW_ECTime"
*MEAS_COND_AXIS_NAME_INTERNAL-34 "CW_Flow1"
*MEAS_COND_AXIS_NAME_INTERNAL-35 "CW_Temperature1"
*MEAS_COND_AXIS_NAME_INTERNAL-36 "CW_Pressure1"
*MEAS_COND_AXIS_NAME_INTERNAL-37 "CW_PressureIn"
*MEAS_COND_AXIS_NAME_INTERNAL-38 "CW_PressureOut"
*MEAS_COND_AXIS_NAME_INTERNAL-39 "CW_Flow2"
*MEAS_COND_AXIS_NAME_INTERNAL-4 "IncidentSlitBox"
*MEAS_COND_AXIS_NAME_INTERNAL-40 "CW_Temperature2"
*MEAS_COND_AXIS_NAME_INTERNAL-41 "CW_Pressure2"
*MEAS_COND_AXIS_NAME_INTERNAL-42 "RE_EnclosureTemp"
*MEAS_COND_AXIS_NAME_INTERNAL-43 "RE_EnclosureHummidity"
*MEAS_COND_AXIS_NAME_INTERNAL-44 "RE_CabinetTemp"
*MEAS_COND_AXIS_NAME_INTERNAL-45 "RE_RPTemp"
*MEAS_COND_AXIS_NAME_INTERNAL-46 "RE_ShutterAXrayOnTime"
*MEAS_COND_AXIS_NAME_INTERNAL-47 "RE_ShutterATimes"
*MEAS_COND_AXIS_NAME_INTERNAL-48 "RE_ShutterAOpenCloseTime"
*MEAS_COND_AXIS_NAME_INTERNAL-49 "RE_ShutterACloseOpenTime"
*MEAS_COND_AXIS_NAME_INTERNAL-5 "IncidentAxdSlit"
*MEAS_COND_AXIS_NAME_INTERNAL-50 "RE_ShutterBXrayOnTime"
*MEAS_COND_AXIS_NAME_INTERNAL-51 "RE_ShutterBTimes"
*MEAS_COND_AXIS_NAME_INTERNAL-52 "RE_ShutterBOpenCloseTime"
*MEAS_COND_AXIS_NAME_INTERNAL-53 "RE_ShutterBCloseOpenTime"
*MEAS_COND_AXIS_NAME_INTERNAL-54 "RE_XrayWarningRamp"
*MEAS_COND_AXIS_NAME_INTERNAL-55 "RE_ShutterAInstallation"
*MEAS_COND_AXIS_NAME_INTERNAL-56 "RE_ShutterARamp"
*MEAS_COND_AXIS_NAME_INTERNAL-57 "RE_ShutterBInstallation"
*MEAS_COND_AXIS_NAME_INTERNAL-58 "RE_ShutterBRamp"
*MEAS_COND_AXIS_NAME_INTERNAL-59 "RE_ExtShutterCLS"
*MEAS_COND_AXIS_NAME_INTERNAL-6 "IncidentAxdSlit"
*MEAS_COND_AXIS_NAME_INTERNAL-60 "RE_ExtXrayOFF"
*MEAS_COND_AXIS_NAME_INTERNAL-61 "RE_ExtSafetyCircuit"
*MEAS_COND_AXIS_NAME_INTERNAL-62 "Version_CPU"
*MEAS_COND_AXIS_NAME_INTERNAL-63 "Version_RS1"
*MEAS_COND_AXIS_NAME_INTERNAL-64 "Version_RS2"
*MEAS_COND_AXIS_NAME_INTERNAL-65 "Version_HV"
*MEAS_COND_AXIS_NAME_INTERNAL-66 "Version_CW"
*MEAS_COND_AXIS_NAME_INTERNAL-67 "Version_RT"
*MEAS_COND_AXIS_NAME_INTERNAL-68 "IncidentPrimary"
*MEAS_COND_AXIS_NAME_INTERNAL-69 "IncidentMonochromator"
*MEAS_COND_AXIS_NAME_INTERNAL-7 "IncidentAxdSlit"
*MEAS_COND_AXIS_NAME_INTERNAL-70 "ReceivingOptics"
*MEAS_COND_AXIS_NAME_INTERNAL-71 "CounterMonochromatorKind"
*MEAS_COND_AXIS_NAME_INTERNAL-8 "Filter"
*MEAS_COND_AXIS_NAME_INTERNAL-9 "ReceivingSlitBox1"
*MEAS_COND_AXIS_NAME-0 "TwoThetaTheta"
*MEAS_COND_AXIS_NAME-1 "IncidentSollerSlit"
*MEAS_COND_AXIS_NAME-10 "ReceivingSlitBox1-_Axis"
*MEAS_COND_AXIS_NAME-11 "SlitSS"
*MEAS_COND_AXIS_NAME-12 "Filter"
*MEAS_COND_AXIS_NAME-13 "ReceivingSollerSlit"
*MEAS_COND_AXIS_NAME-14 "ReceivingSlitBox2"
*MEAS_COND_AXIS_NAME-15 "ReceivingSlitBox2-_Axis"
*MEAS_COND_AXIS_NAME-16 "SlitRS"
*MEAS_COND_AXIS_NAME-17 "PHA"
*MEAS_COND_AXIS_NAME-18 "RS3"
*MEAS_COND_AXIS_NAME-19 "Target_TargetTime"
*MEAS_COND_AXIS_NAME-2 "IncidentSlitBox"
*MEAS_COND_AXIS_NAME-20 "Target_XrayOnTime"
*MEAS_COND_AXIS_NAME-21 "Target_TMPTime"
*MEAS_COND_AXIS_NAME-22 "Target_RPTime"
*MEAS_COND_AXIS_NAME-23 "Target_FilamentTime"
*MEAS_COND_AXIS_NAME-24 "Target_IG"
*MEAS_COND_AXIS_NAME-25 "Target_GP"
*MEAS_COND_AXIS_NAME-26 "Target_FC"
*MEAS_COND_AXIS_NAME-27 "HVPS_Bias"
*MEAS_COND_AXIS_NAME-28 "HVPS_HVPSTime"
*MEAS_COND_AXIS_NAME-29 "HVPS_Type1Time"
*MEAS_COND_AXIS_NAME-3 "IncidentSlitBox-_Axis"
*MEAS_COND_AXIS_NAME-30 "HVPS_Type2Time"
*MEAS_COND_AXIS_NAME-31 "HVPS_Type3Time"
*MEAS_COND_AXIS_NAME-32 "CW_IERTime"
*MEAS_COND_AXIS_NAME-33 "CW_ECTime"
*MEAS_COND_AXIS_NAME-34 "CW_Flow1"
*MEAS_COND_AXIS_NAME-35 "CW_Temperature1"
*MEAS_COND_AXIS_NAME-36 "CW_Pressure1"
*MEAS_COND_AXIS_NAME-37 "CW_PressureIn"
*MEAS_COND_AXIS_NAME-38 "CW_PressureOut"
*MEAS_COND_AXIS_NAME-39 "CW_Flow2"
*MEAS_COND_AXIS_NAME-4 "SlitDS"
*MEAS_COND_AXIS_NAME-40 "CW_Temperature2"
*MEAS_COND_AXIS_NAME-41 "CW_Pressure2"
*MEAS_COND_AXIS_NAME-42 "RE_EnclosureTemp"
*MEAS_COND_AXIS_NAME-43 "RE_EnclosureHummidity"
*MEAS_COND_AXIS_NAME-44 "RE_CabinetTemp"
*MEAS_COND_AXIS_NAME-45 "RE_RPTemp"
*MEAS_COND_AXIS_NAME-46 "RE_ShutterAXrayOnTime"
*MEAS_COND_AXIS_NAME-47 "RE_ShutterATimes"
*MEAS_COND_AXIS_NAME-48 "RE_ShutterAOpenCloseTime"
*MEAS_COND_AXIS_NAME-49 "RE_ShutterACloseOpenTime"
*MEAS_COND_AXIS_NAME-5 "IncidentAxdSlit"
*MEAS_COND_AXIS_NAME-50 "RE_ShutterBXrayOnTime"
*MEAS_COND_AXIS_NAME-51 "RE_ShutterBTimes"
*MEAS_COND_AXIS_NAME-52 "RE_ShutterBOpenCloseTime"
*MEAS_COND_AXIS_NAME-53 "RE_ShutterBCloseOpenTime"
*MEAS_COND_AXIS_NAME-54 "RE_XrayWarningRamp"
*MEAS_COND_AXIS_NAME-55 "RE_ShutterAInstallation"
*MEAS_COND_AXIS_NAME-56 "RE_ShutterARamp"
*MEAS_COND_AXIS_NAME-57 "RE_ShutterBInstallation"
*MEAS_COND_AXIS_NAME-58 "RE_ShutterBRamp"
*MEAS_COND_AXIS_NAME-59 "RE_ExtShutterCLS"
*MEAS_COND_AXIS_NAME-6 "LLS"
*MEAS_COND_AXIS_NAME-60 "RE_ExtXrayOFF"
*MEAS_COND_AXIS_NAME-61 "RE_ExtSafetyCircuit"
*MEAS_COND_AXIS_NAME-62 "Version_CPU"
*MEAS_COND_AXIS_NAME-63 "Version_RS1"
*MEAS_COND_AXIS_NAME-64 "Version_RS2"
*MEAS_COND_AXIS_NAME-65 "Version_HV"
*MEAS_COND_AXIS_NAME-66 "Version_CW"
*MEAS_COND_AXIS_NAME-67 "Version_RT"
*MEAS_COND_AXIS_NAME-68 "IncidentPrimary"
*MEAS_COND_AXIS_NAME-69 "IncidentMonochromator"
*MEAS_COND_AXIS_NAME-7 "DHLSlit"
*MEAS_COND_AXIS_NAME-70 "ReceivingOptics"
*MEAS_COND_AXIS_NAME-71 "CounterMonochromatorKind"
*MEAS_COND_AXIS_NAME-8 "Filter"
*MEAS_COND_AXIS_NAME-9 "ReceivingSlitBox1"
*MEAS_COND_AXIS_OFFSET-0 "0"
*MEAS_COND_AXIS_OFFSET-1 "0"
*MEAS_COND_AXIS_OFFSET-10 "0"
*MEAS_COND_AXIS_OFFSET-11 "0"
*MEAS_COND_AXIS_OFFSET-12 "0"
*MEAS_COND_AXIS_OFFSET-13 "0"
*MEAS_COND_AXIS_OFFSET-14 "0"
*MEAS_COND_AXIS_OFFSET-15 "0"
*MEAS_COND_AXIS_OFFSET-16 "0"
*MEAS_COND_AXIS_OFFSET-17 "0"
*MEAS_COND_AXIS_OFFSET-18 "0"
*MEAS_COND_AXIS_OFFSET-19 "0"
*MEAS_COND_AXIS_OFFSET-2 "0"
*MEAS_COND_AXIS_OFFSET-20 "0"
*MEAS_COND_AXIS_OFFSET-21 "0"
*MEAS_COND_AXIS_OFFSET-22 "0"
*MEAS_COND_AXIS_OFFSET-23 "0"
*MEAS_COND_AXIS_OFFSET-24 "0"
*MEAS_COND_AXIS_OFFSET-25 "0"
*MEAS_COND_AXIS_OFFSET-26 "0"
*MEAS_COND_AXIS_OFFSET-27 "0"
*MEAS_COND_AXIS_OFFSET-28 "0"
*MEAS_COND_AXIS_OFFSET-29 "0"
*MEAS_COND_AXIS_OFFSET-3 "0"
*MEAS_COND_AXIS_OFFSET-30 "0"
*MEAS_COND_AXIS_OFFSET-31 "0"
*MEAS_COND_AXIS_OFFSET-32 "0"
*MEAS_COND_AXIS_OFFSET-33 "0"
*MEAS_COND_AXIS_OFFSET-34 "0"
*MEAS_COND_AXIS_OFFSET-35 "0"
*MEAS_COND_AXIS_OFFSET-36 "0"
*MEAS_COND_AXIS_OFFSET-37 "0"
*MEAS_COND_AXIS_OFFSET-38 "0"
*MEAS_COND_AXIS_OFFSET-39 "0"
*MEAS_COND_AXIS_OFFSET-4 "0"
*MEAS_COND_AXIS_OFFSET-40 "0"
*MEAS_COND_AXIS_OFFSET-41 "0"
*MEAS_COND_AXIS_OFFSET-42 "0"
*MEAS_COND_AXIS_OFFSET-43 "0"
*MEAS_COND_AXIS_OFFSET-44 "0"
*MEAS_COND_AXIS_OFFSET-45 "0"
*MEAS_COND_AXIS_OFFSET-46 "0"
*MEAS_COND_AXIS_OFFSET-47 "0"
*MEAS_COND_AXIS_OFFSET-48 "0"
*MEAS_COND_AXIS_OFFSET-49 "0"
*MEAS_COND_AXIS_OFFSET-5 "0"
*MEAS_COND_AXIS_OFFSET-50 "0"
*MEAS_COND_AXIS_OFFSET-51 "0"
*MEAS_COND_AXIS_OFFSET-52 "0"
*MEAS_COND_AXIS_OFFSET-53 "0"
*MEAS_COND_AXIS_OFFSET-54 "0"
*MEAS_COND_AXIS_OFFSET-55 "0"
*MEAS_COND_AXIS_OFFSET-56 "0"
*MEAS_COND_AXIS_OFFSET-57 "0"
*MEAS_COND_AXIS_OFFSET-58 "0"
*MEAS_COND_AXIS_OFFSET-59 "0"
*MEAS_COND_AXIS_OFFSET-6 "0"
*MEAS_COND_AXIS_OFFSET-60 "0"
*MEAS_COND_AXIS_OFFSET-61 "0"
*MEAS_COND_AXIS_OFFSET-62 "0"
*MEAS_COND_AXIS_OFFSET-63 "0"
*MEAS_COND_AXIS_OFFSET-64 "0"
*MEAS_COND_AXIS_OFFSET-65 "0"
*MEAS_COND_AXIS_OFFSET-66 "0"
*MEAS_COND_AXIS_OFFSET-67 "0"
*MEAS_COND_AXIS_OFFSET-68 "0"
*MEAS_COND_AXIS_OFFSET-69 "0"
*MEAS_COND_AXIS_OFFSET-7 "0"
*MEAS_COND_AXIS_OFFSET-70 "0"
*MEAS_COND_AXIS_OFFSET-71 "0"
*MEAS_COND_AXIS_OFFSET-8 "0"
*MEAS_COND_AXIS_OFFSET-9 "0"
*MEAS_COND_AXIS_POSITION-0 "12.0000"
*MEAS_COND_AXIS_POSITION-1 "Soller_slit_2.5deg"
*MEAS_COND_AXIS_POSITION-10 "Open"
*MEAS_COND_AXIS_POSITION-11 "Open"
*MEAS_COND_AXIS_POSITION-12 "K_beta_x1"
*MEAS_COND_AXIS_POSITION-13 "Soller_slit_2.5deg"
*MEAS_COND_AXIS_POSITION-14 "Open"
*MEAS_COND_AXIS_POSITION-15 "Open"
*MEAS_COND_AXIS_POSITION-16 "Open"
*MEAS_COND_AXIS_POSITION-17 "40"
*MEAS_COND_AXIS_POSITION-18 "Open"
*MEAS_COND_AXIS_POSITION-2 "0.625deg"
*MEAS_COND_AXIS_POSITION-3 "0.625deg"
*MEAS_COND_AXIS_POSITION-4 "0.625deg"
*MEAS_COND_AXIS_POSITION-5 "10mm"
*MEAS_COND_AXIS_POSITION-6 "10mm"
*MEAS_COND_AXIS_POSITION-68 "No_unit"
*MEAS_COND_AXIS_POSITION-69 "Manual"
*MEAS_COND_AXIS_POSITION-7 "10mm"
*MEAS_COND_AXIS_POSITION-70 "No_unit"
*MEAS_COND_AXIS_POSITION-71 "None"
*MEAS_COND_AXIS_POSITION-8 "None"
*MEAS_COND_AXIS_POSITION-9 "Open"
*MEAS_COND_AXIS_RESOLUTION-0 "0.0025"
*MEAS_COND_AXIS_RESOLUTION-1 ""
*MEAS_COND_AXIS_RESOLUTION-10 ""
*MEAS_COND_AXIS_RESOLUTION-11 ""
*MEAS_COND_AXIS_RESOLUTION-12 ""
*MEAS_COND_AXIS_RESOLUTION-13 ""
*MEAS_COND_AXIS_RESOLUTION-14 ""
*MEAS_COND_AXIS_RESOLUTION-15 ""
*MEAS_COND_AXIS_RESOLUTION-16 ""
*MEAS_COND_AXIS_RESOLUTION-17 "1"
*MEAS_COND_AXIS_RESOLUTION-18 "0.1"
*MEAS_COND_AXIS_RESOLUTION-19 "0.01"
*MEAS_COND_AXIS_RESOLUTION-2 ""
*MEAS_COND_AXIS_RESOLUTION-20 "0.010000"
*MEAS_COND_AXIS_RESOLUTION-21 "0.01"
*MEAS_COND_AXIS_RESOLUTION-22 "0.01"
*MEAS_COND_AXIS_RESOLUTION-23 "0.01"
*MEAS_COND_AXIS_RESOLUTION-24 "1"
*MEAS_COND_AXIS_RESOLUTION-25 "1"
*MEAS_COND_AXIS_RESOLUTION-26 "1"
*MEAS_COND_AXIS_RESOLUTION-27 "1"
*MEAS_COND_AXIS_RESOLUTION-28 "0.01"
*MEAS_COND_AXIS_RESOLUTION-29 "0.01"
*MEAS_COND_AXIS_RESOLUTION-3 ""
*MEAS_COND_AXIS_RESOLUTION-30 "0.01"
*MEAS_COND_AXIS_RESOLUTION-31 "0.01"
*MEAS_COND_AXIS_RESOLUTION-32 "0.010000"
*MEAS_COND_AXIS_RESOLUTION-33 "1"
*MEAS_COND_AXIS_RESOLUTION-34 "0.100000"
*MEAS_COND_AXIS_RESOLUTION-35 "1.000000"
*MEAS_COND_AXIS_RESOLUTION-36 "0.010000"
*MEAS_COND_AXIS_RESOLUTION-37 "0.01"
*MEAS_COND_AXIS_RESOLUTION-38 "0.01"
*MEAS_COND_AXIS_RESOLUTION-39 "0.1"
*MEAS_COND_AXIS_RESOLUTION-4 ""
*MEAS_COND_AXIS_RESOLUTION-40 "1"
*MEAS_COND_AXIS_RESOLUTION-41 "0.01"
*MEAS_COND_AXIS_RESOLUTION-42 "1.000000"
*MEAS_COND_AXIS_RESOLUTION-43 "1"
*MEAS_COND_AXIS_RESOLUTION-44 "1.000000"
*MEAS_COND_AXIS_RESOLUTION-45 "1"
*MEAS_COND_AXIS_RESOLUTION-46 "0.01"
*MEAS_COND_AXIS_RESOLUTION-47 "1"
*MEAS_COND_AXIS_RESOLUTION-48 "1"
*MEAS_COND_AXIS_RESOLUTION-49 "1"
*MEAS_COND_AXIS_RESOLUTION-5 ""
*MEAS_COND_AXIS_RESOLUTION-50 "0.01"
*MEAS_COND_AXIS_RESOLUTION-51 "1.000000"
*MEAS_COND_AXIS_RESOLUTION-52 "1.000000"
*MEAS_COND_AXIS_RESOLUTION-53 "1.000000"
*MEAS_COND_AXIS_RESOLUTION-54 "-"
*MEAS_COND_AXIS_RESOLUTION-55 "-"
*MEAS_COND_AXIS_RESOLUTION-56 "-"
*MEAS_COND_AXIS_RESOLUTION-57 "1.000000"
*MEAS_COND_AXIS_RESOLUTION-58 "-"
*MEAS_COND_AXIS_RESOLUTION-59 "-"
*MEAS_COND_AXIS_RESOLUTION-6 ""
*MEAS_COND_AXIS_RESOLUTION-60 "-"
*MEAS_COND_AXIS_RESOLUTION-61 "1.000000"
*MEAS_COND_AXIS_RESOLUTION-62 "1.000000"
*MEAS_COND_AXIS_RESOLUTION-63 "1.000000"
*MEAS_COND_AXIS_RESOLUTION-64 "1.000000"
*MEAS_COND_AXIS_RESOLUTION-65 "1.000000"
*MEAS_COND_AXIS_RESOLUTION-66 "1.000000"
*MEAS_COND_AXIS_RESOLUTION-67 "1.000000"
*MEAS_COND_AXIS_RESOLUTION-7 ""
*MEAS_COND_AXIS_RESOLUTION-8 ""
*MEAS_COND_AXIS_RESOLUTION-9 ""
*MEAS_COND_AXIS_STATE-0 "Scan"
*MEAS_COND_AXIS_STATE-1 "Fixed"
*MEAS_COND_AXIS_STATE-10 "Fixed"
*MEAS_COND_AXIS_STATE-11 "Fixed"
*MEAS_COND_AXIS_STATE-12 "Fixed"
*MEAS_COND_AXIS_STATE-13 "Fixed"
*MEAS_COND_AXIS_STATE-14 "Fixed"
*MEAS_COND_AXIS_STATE-15 "Fixed"
*MEAS_COND_AXIS_STATE-16 "Fixed"
*MEAS_COND_AXIS_STATE-17 "Fixed"
*MEAS_COND_AXIS_STATE-18 "Fixed"
*MEAS_COND_AXIS_STATE-19 "Fixed"
*MEAS_COND_AXIS_STATE-2 "Fixed"
*MEAS_COND_AXIS_STATE-20 "Fixed"
*MEAS_COND_AXIS_STATE-21 "Fixed"
*MEAS_COND_AXIS_STATE-22 "Fixed"
*MEAS_COND_AXIS_STATE-23 "Fixed"
*MEAS_COND_AXIS_STATE-24 "Fixed"
*MEAS_COND_AXIS_STATE-25 "Fixed"
*MEAS_COND_AXIS_STATE-26 "Fixed"
*MEAS_COND_AXIS_STATE-27 "Fixed"
*MEAS_COND_AXIS_STATE-28 "Fixed"
*MEAS_COND_AXIS_STATE-29 "Fixed"
*MEAS_COND_AXIS_STATE-3 "Fixed"
*MEAS_COND_AXIS_STATE-30 "Fixed"
*MEAS_COND_AXIS_STATE-31 "Fixed"
*MEAS_COND_AXIS_STATE-32 "Fixed"
*MEAS_COND_AXIS_STATE-33 "Fixed"
*MEAS_COND_AXIS_STATE-34 "Fixed"
*MEAS_COND_AXIS_STATE-35 "Fixed"
*MEAS_COND_AXIS_STATE-36 "Fixed"
*MEAS_COND_AXIS_STATE-37 "Fixed"
*MEAS_COND_AXIS_STATE-38 "Fixed"
*MEAS_COND_AXIS_STATE-39 "Fixed"
*MEAS_COND_AXIS_STATE-4 "Fixed"
*MEAS_COND_AXIS_STATE-40 "Fixed"
*MEAS_COND_AXIS_STATE-41 "Fixed"
*MEAS_COND_AXIS_STATE-42 "Fixed"
*MEAS_COND_AXIS_STATE-43 "Fixed"
*MEAS_COND_AXIS_STATE-44 "Fixed"
*MEAS_COND_AXIS_STATE-45 "Fixed"
*MEAS_COND_AXIS_STATE-46 "Fixed"
*MEAS_COND_AXIS_STATE-47 "Fixed"
*MEAS_COND_AXIS_STATE-48 "Fixed"
*MEAS_COND_AXIS_STATE-49 "Fixed"
*MEAS_COND_AXIS_STATE-5 "Fixed"
*MEAS_COND_AXIS_STATE-50 "Fixed"
*MEAS_COND_AXIS_STATE-51 "Fixed"
*MEAS_COND_AXIS_STATE-52 "Fixed"
*MEAS_COND_AXIS_STATE-53 "Fixed"
*MEAS_COND_AXIS_STATE-54 "Fixed"
*MEAS_COND_AXIS_STATE-55 "Fixed"
*MEAS_COND_AXIS_STATE-56 "Fixed"
*MEAS_COND_AXIS_STATE-57 "Fixed"
*MEAS_COND_AXIS_STATE-58 "Fixed"
*MEAS_COND_AXIS_STATE-59 "Fixed"
*MEAS_COND_AXIS_STATE-6 "Fixed"
*MEAS_COND_AXIS_STATE-60 "Fixed"
*MEAS_COND_AXIS_STATE-61 "Fixed"
*MEAS_COND_AXIS_STATE-62 "Fixed"
*MEAS_COND_AXIS_STATE-63 "Fixed"
*MEAS_COND_AXIS_STATE-64 "Fixed"
*MEAS_COND_AXIS_STATE-65 "Fixed"
*MEAS_COND_AXIS_STATE-66 "Fixed"
*MEAS_COND_AXIS_STATE-67 "Fixed"
*MEAS_COND_AXIS_STATE-7 "Fixed"
*MEAS_COND_AXIS_STATE-8 "Fixed"
*MEAS_COND_AXIS_STATE-9 "Fixed"
*MEAS_COND_AXIS_UNIT-0 "deg"
*MEAS_COND_AXIS_UNIT-1 ""
*MEAS_COND_AXIS_UNIT-10 ""
*MEAS_COND_AXIS_UNIT-11 ""
*MEAS_COND_AXIS_UNIT-12 ""
*MEAS_COND_AXIS_UNIT-13 ""
*MEAS_COND_AXIS_UNIT-14 ""
*MEAS_COND_AXIS_UNIT-15 ""
*MEAS_COND_AXIS_UNIT-16 ""
*MEAS_COND_AXIS_UNIT-17 "div"
*MEAS_COND_AXIS_UNIT-18 ""
*MEAS_COND_AXIS_UNIT-19 "H"
*MEAS_COND_AXIS_UNIT-2 ""
*MEAS_COND_AXIS_UNIT-20 "H"
*MEAS_COND_AXIS_UNIT-21 "H"
*MEAS_COND_AXIS_UNIT-22 "H"
*MEAS_COND_AXIS_UNIT-23 "H"
*MEAS_COND_AXIS_UNIT-24 "mV"
*MEAS_COND_AXIS_UNIT-25 "V"
*MEAS_COND_AXIS_UNIT-26 "V"
*MEAS_COND_AXIS_UNIT-27 "V"
*MEAS_COND_AXIS_UNIT-28 "H"
*MEAS_COND_AXIS_UNIT-29 "H"
*MEAS_COND_AXIS_UNIT-3 ""
*MEAS_COND_AXIS_UNIT-30 "H"
*MEAS_COND_AXIS_UNIT-31 "H"
*MEAS_COND_AXIS_UNIT-32 "H"
*MEAS_COND_AXIS_UNIT-33 "uS/m"
*MEAS_COND_AXIS_UNIT-34 "L/min"
*MEAS_COND_AXIS_UNIT-35 "degree"
*MEAS_COND_AXIS_UNIT-36 "MPa"
*MEAS_COND_AXIS_UNIT-37 "MPa"
*MEAS_COND_AXIS_UNIT-38 "MPa"
*MEAS_COND_AXIS_UNIT-39 "L/min"
*MEAS_COND_AXIS_UNIT-4 ""
*MEAS_COND_AXIS_UNIT-40 "C"
*MEAS_COND_AXIS_UNIT-41 "MPa"
*MEAS_COND_AXIS_UNIT-42 "degree"
*MEAS_COND_AXIS_UNIT-43 "percent"
*MEAS_COND_AXIS_UNIT-44 "degree"
*MEAS_COND_AXIS_UNIT-45 "C"
*MEAS_COND_AXIS_UNIT-46 "H"
*MEAS_COND_AXIS_UNIT-47 "time"
*MEAS_COND_AXIS_UNIT-48 "msec"
*MEAS_COND_AXIS_UNIT-49 "msec"
*MEAS_COND_AXIS_UNIT-5 ""
*MEAS_COND_AXIS_UNIT-50 "H"
*MEAS_COND_AXIS_UNIT-51 "times"
*MEAS_COND_AXIS_UNIT-52 "msec"
*MEAS_COND_AXIS_UNIT-53 "msec"
*MEAS_COND_AXIS_UNIT-54 "-"
*MEAS_COND_AXIS_UNIT-55 "-"
*MEAS_COND_AXIS_UNIT-56 "-"
*MEAS_COND_AXIS_UNIT-57 ""
*MEAS_COND_AXIS_UNIT-58 "-"
*MEAS_COND_AXIS_UNIT-59 "-"
*MEAS_COND_AXIS_UNIT-6 ""
*MEAS_COND_AXIS_UNIT-60 "-"
*MEAS_COND_AXIS_UNIT-61 ""
*MEAS_COND_AXIS_UNIT-62 ""
*MEAS_COND_AXIS_UNIT-63 ""
*MEAS_COND_AXIS_UNIT-64 ""
*MEAS_COND_AXIS_UNIT-65 ""
*MEAS_COND_AXIS_UNIT-66 ""
*MEAS_COND_AXIS_UNIT-67 ""
*MEAS_COND_AXIS_UNIT-68 ""
*MEAS_COND_AXIS_UNIT-69 ""
*MEAS_COND_AXIS_UNIT-7 ""
*MEAS_COND_AXIS_UNIT-70 ""
*MEAS_COND_AXIS_UNIT-71 ""
*MEAS_COND_AXIS_UNIT-8 ""
*MEAS_COND_AXIS_UNIT-9 ""
*MEAS_COND_CORRECTION_SLIT_COUNTERMONO ""
*MEAS_COND_CORRECTION_SLIT_DS "0.625deg"
*MEAS_COND_CORRECTION_SLIT_FILTER "None"
*MEAS_COND_CORRECTION_SLIT_IHS "10mm"
*MEAS_COND_CORRECTION_SLIT_RS "Open"
*MEAS_COND_CORRECTION_SLIT_SOLLER_INC "2.5deg"
*MEAS_COND_CORRECTION_SLIT_SOLLER_REC "2.5deg"
*MEAS_COND_CORRECTION_SLIT_SS "Open"
*MEAS_COND_COUNTER_CENTER_X "0.5"
*MEAS_COND_COUNTER_CENTER_Y "65.15"
*MEAS_COND_COUNTER_COUNTMODE "Differential"
*MEAS_COND_COUNTER_DEADTIMECORRECTION "Enabled"
*MEAS_COND_COUNTER_DISTANCE "150"
*MEAS_COND_COUNTER_ENERGYMODE "Standard"
*MEAS_COND_COUNTER_PHA_UNIT "div"
*MEAS_COND_COUNTER_PHABASE "40"
*MEAS_COND_COUNTER_PHAWINDOW "24"
*MEAS_COND_COUNTER_PITCH_X "20"
*MEAS_COND_COUNTER_PITCH_Y "0.1"
*MEAS_COND_COUNTER_PITCHUNIT "mm"
*MEAS_COND_COUNTER_VALIDWIDTH_X "1"
*MEAS_COND_COUNTER_VALIDWIDTH_Y "200"
*MEAS_COND_XG_CURRENT "15"
*MEAS_COND_XG_VOLTAGE "40"
*MEAS_COND_XG_WAVE_TYPE "Ka"
*MEAS_DATA_COUNT "6501"
*MEAS_SCAN_AXIS_X "TwoThetaTheta"
*MEAS_SCAN_AXIS_X_INTERNAL "TwoThetaTheta"
*MEAS_SCAN_END_TIME "08/05/2022 12:10:55"
*MEAS_SCAN_MODE "CONTINUOUS"
*MEAS_SCAN_MODE_INTERNAL "TDI_1D"
*MEAS_SCAN_RESOLUTION_X "0.0025"
*MEAS_SCAN_SPEED "10.0000"
*MEAS_SCAN_SPEED_UNIT "deg/min"
*MEAS_SCAN_START "5.0000"
*MEAS_SCAN_START_TIME "08/05/2022 12:03:44"
*MEAS_SCAN_STEP "0.0100"
*MEAS_SCAN_STOP "70.0000"
*MEAS_SCAN_UNEQUALY_SPACED "False"
*MEAS_SCAN_UNIT_X "deg"
*MEAS_SCAN_UNIT_Y "cps"
#Intensity_unit=cps
#Attenuator_coefficient=1.0000
5.0000 715.7900
5.0100 714.3625
5.0200 712.9400
5.0300 934.1225
5.0400 1151.4700
5.0500 1087.7875
5.0600 1186.9350
5.0700 1252.1675
5.0800 1255.8950
5.0900 1363.3300
5.1000 1427.8550
5.1100 993.4675
5.1200 860.2550
5.1300 985.5650
5.1400 1135.0025
5.1500 1093.9200
5.1600 1221.0400
5.1700 1288.0900
5.1800 1264.7800
5.1900 1232.3650
5.2000 1012.0850
5.2100 1119.6400
5.2200 1052.5650
5.2300 1014.6850
5.2400 1435.8875
5.2500 1402.2700
5.2600 1257.8075
5.2700 1160.7500
5.2800 1149.4100
5.2900 989.0300
5.3000 1126.8025
5.3100 1221.7075
5.3200 1123.6900
5.3300 1240.2250
5.3400 1305.2800
5.3500 1387.0600
5.3600 1549.5650
5.3700 1201.5550
5.3800 1131.0900
5.3900 1177.6625
5.4000 1207.3175
5.4100 1156.6175
5.4200 1225.5350
5.4300 1309.2450
5.4400 1239.0950
5.4500 1253.3400
5.4600 1126.5950
5.4700 1084.0750
5.4800 1358.4100
5.4900 1338.2475
5.5000 1304.5275
5.5100 1425.3900
5.5200 1311.7975
5.5300 1143.5925
5.5400 1198.8925
5.5500 1606.4875
5.5600 1476.3400
5.5700 1303.0975
5.5800 1183.2600
5.5900 1194.0925
5.6000 1269.3675
5.6100 1276.0275
5.6200 1446.7700
5.6300 1366.3125
5.6400 1204.2925
5.6500 1208.9475
5.6600 1209.7750
5.6700 1085.2325
5.6800 1092.9650
5.6900 1118.3925
5.7000 1192.4200
5.7100 1296.3850
5.7200 1160.4050
5.7300 1189.1050
5.7400 1313.7400
5.7500 1446.7675
5.7600 1242.3175
5.7700 1117.5925
5.7800 1151.8725
5.7900 1395.1450
5.8000 1493.7675
5.8100 1356.8950
5.8200 1432.2100
5.8300 1275.1300
5.8400 1252.4650
5.8500 1179.2975
5.8600 1215.7850
5.8700 1290.3225
5.8800 1084.9725
5.8900 1033.3825
5.9000 1263.3200
5.9100 1337.1425
5.9200 1223.8325
5.9300 1253.8950
5.9400 1164.4350
5.9500 1267.1050
5.9600 1256.2875
5.9700 1459.7675
5.9800 1599.0350
5.9900 1287.7050
6.0000 1221.9925
6.0100 1171.0700
6.0200 1163.3450
6.0300 1161.4175
6.0400 1182.3725
6.0500 1274.6500
6.0600 1329.6725
6.0700 1264.9825
6.0800 1095.2600
6.0900 1141.3450
6.1000 1125.4675
6.1100 1120.7525
6.1200 1209.1450
6.1300 1308.7175
6.1400 1295.5850
6.1500 1380.3625
6.1600 1120.8075
6.1700 1062.2825
6.1800 1325.5425
6.1900 1424.5550
6.2000 1252.8925
6.2100 1094.8100
6.2200 1142.4275
6.2300 1149.1500
6.2400 1235.6675
6.2500 1267.1350
6.2600 1378.0250
6.2700 1214.2475
6.2800 1277.3275
6.2900 1352.3600
6.3000 1358.7325
6.3100 1378.4075
6.3200 1466.2175
6.3300 1322.9800
6.3400 1322.7875
6.3500 1150.1175
6.3600 1082.4050
6.3700 1355.9050
6.3800 1239.5325
6.3900 1260.8950
6.4000 1329.0550
6.4100 1313.9825
6.4200 1266.2750
6.4300 1087.5825
6.4400 1319.5925
6.4500 1287.3525
6.4600 1425.8875
6.4700 1273.3950
6.4800 1397.4375
6.4900 1182.0150
6.5000 980.2475
6.5100 1146.2600
6.5200 1338.2550
6.5300 1358.5975
6.5400 1209.5275
6.5500 1209.0825
6.5600 1251.8950
6.5700 1088.4100
6.5800 1460.8025
6.5900 1324.1250
6.6000 1276.2450
6.6100 1458.3650
6.6200 1315.4125
6.6300 1311.8675
6.6400 1374.6500
6.6500 1422.1675
6.6600 1384.4075
6.6700 1212.3225
6.6800 1229.3700
6.6900 1192.0950
6.7000 1246.1550
6.7100 1497.7100
6.7200 1345.1525
6.7300 1318.2700
6.7400 1397.6250
6.7500 1386.3100
6.7600 1381.5000
6.7700 1339.0025
6.7800 1270.9225
6.7900 1180.1250
6.8000 1348.5775
6.8100 1110.0500
6.8200 1253.2925
6.8300 1196.0500
6.8400 1123.2950
6.8500 1073.4700
6.8600 1166.1350
6.8700 1297.6250
6.8800 1471.2300
6.8900 1312.3675
6.9000 1127.2825
6.9100 1242.2750
6.9200 1141.0850
6.9300 1103.3175
6.9400 1335.3350
6.9500 1464.4950
6.9600 1495.6700
6.9700 1417.8400
6.9800 1326.6200
6.9900 1392.0000
7.0000 1108.2200
7.0100 1221.6900
7.0200 1241.7025
7.0300 1453.5825
7.0400 1423.2175
7.0500 1393.6975
7.0600 1311.6800
7.0700 1337.5900
7.0800 1341.1225
7.0900 1435.4550
7.1000 1350.8950
7.1100 1297.1000
7.1200 1443.1250
7.1300 1328.8300
7.1400 1212.5750
7.1500 1254.5925
7.1600 1413.2600
7.1700 1508.9075
7.1800 1422.6725
7.1900 1369.3225
7.2000 1305.2625
7.2100 1314.2800
7.2200 1466.1050
7.2300 1391.3725
7.2400 1432.4625
7.2500 1513.6800
7.2600 1466.0600
7.2700 1530.9150
7.2800 1689.1375
7.2900 1297.4500
7.3000 1292.7225
7.3100 1354.8350
7.3200 1361.0075
7.3300 1470.5275
7.3400 1595.7600
7.3500 1369.0125
7.3600 1240.0700
7.3700 1243.5100
7.3800 1373.4725
7.3900 1390.2625
7.4000 1314.9000
7.4100 1504.2800
7.4200 1330.0075
7.4300 1298.9825
7.4400 1205.9175
7.4500 1191.0250
7.4600 1371.5475
7.4700 1250.7525
7.4800 1482.1000
7.4900 1190.8300
7.5000 1195.9025
7.5100 1292.6525
7.5200 1466.6450
7.5300 1326.2425
7.5400 1282.7050
7.5500 1422.1750
7.5600 1441.4125
7.5700 1493.2850
7.5800 1427.6325
7.5900 1075.6250
7.6000 1113.4075
7.6100 1285.5075
7.6200 1343.0950
7.6300 1470.9950
7.6400 1327.7550
7.6500 1497.3100
7.6600 1506.5425
7.6700 1519.6300
7.6800 1326.1725
7.6900 1242.7550
7.7000 1286.0725
7.7100 1344.9750
7.7200 1473.9100
7.7300 1490.3175
7.7400 1400.9100
7.7500 1333.6225
7.7600 1324.0725
7.7700 1461.7600
7.7800 1411.1575
7.7900 1259.9200
7.8000 1168.0550
7.8100 1294.7525
7.8200 1486.9525
7.8300 1493.8025
7.8400 1403.0275
7.8500 1336.5525
7.8600 1499.1275
7.8700 1471.6450
7.8800 1564.9500
7.8900 1492.8575
7.9000 1341.1100
7.9100 1216.1550
7.9200 1335.6000
7.9300 1439.8375
7.9400 1433.9475
7.9500 1310.5950
7.9600 1596.3450
7.9700 1708.6450
7.9800 1513.7350
7.9900 1480.8700
8.0000 1546.5375
8.0100 1470.6425
8.0200 1439.0950
8.0300 1468.3500
8.0400 1555.6150
8.0500 1382.1375
8.0600 1335.3900
8.0700 1431.4875
8.0800 1428.4375
8.0900 1490.8050
8.1000 1399.3225
8.1100 1299.0550
8.1200 1400.8925
8.1300 1350.7700
8.1400 1487.9350
8.1500 1575.3200
8.1600 1302.8075
8.1700 1455.6975
8.1800 1369.2725
8.1900 1267.4525
8.2000 1335.2950
8.2100 1412.0725
8.2200 1568.0525
8.2300 1441.8100
8.2400 1368.0900
8.2500 1375.1150
8.2600 1261.8900
8.2700 1470.4650
8.2800 1488.0500
8.2900 1435.0050
8.3000 1587.8100
8.3100 1497.9450
8.3200 1446.0300
8.3300 1503.8275
8.3400 1205.6925
8.3500 1268.8500
8.3600 1429.8675
8.3700 1402.7550
8.3800 1361.3975
8.3900 1434.8450
8.4000 1365.7600
8.4100 1223.6275
8.4200 1249.8550
8.4300 1208.1225
8.4400 1342.4200
8.4500 1458.9500
8.4600 1504.1225
8.4700 1412.2275
8.4800 1316.2475
8.4900 1286.2900
8.5000 1440.2575
8.5100 1479.5050
8.5200 1496.0450
8.5300 1496.8075
8.5400 1290.7150
8.5500 1303.6650
8.5600 1529.1725
8.5700 1437.2400
8.5800 1431.1500
8.5900 1416.3750
8.6000 1334.2300
8.6100 1366.9050
8.6200 1295.0300
8.6300 1389.8050
8.6400 1498.8200
8.6500 1372.5800
8.6600 1302.0775
8.6700 1432.2425
8.6800 1468.4925
8.6900 1392.1875
8.7000 1439.7400
8.7100 1340.3700
8.7200 1352.1325
8.7300 1202.1100
8.7400 1344.4450
8.7500 1492.7250
8.7600 1358.0300
8.7700 1362.9675
8.7800 1351.9475
8.7900 1409.7750
8.8000 1190.2475
8.8100 1289.4550
8.8200 1219.7850
8.8300 1128.1150
8.8400 1282.3800
8.8500 1309.0775
8.8600 1186.8625
8.8700 1287.7650
8.8800 1519.3925
8.8900 1432.1625
8.9000 1366.0275
8.9100 1418.4025
8.9200 1488.1475
8.9300 1482.2050
8.9400 1418.4800
8.9500 1498.3875
8.9600 1346.5200
8.9700 1333.4775
8.9800 1455.8675
8.9900 1339.4600
9.0000 1165.7575
9.0100 1275.6250
9.0200 1372.5850
9.0300 1384.3375
9.0400 1458.7000
9.0500 1395.3700
9.0600 1457.1575
9.0700 1558.8100
9.0800 1543.0100
9.0900 1387.5050
9.1000 1242.1275
9.1100 1356.0700
9.1200 1303.1250
9.1300 1409.4200
9.1400 1383.8975
9.1500 1420.4250
9.1600 1442.0850
9.1700 1309.7725
9.1800 1227.0575
9.1900 1320.5600
9.2000 1292.7675
9.2100 1299.4550
9.2200 1405.2225
9.2300 1362.6375
9.2400 1396.4200
9.2500 1403.1975
9.2600 1432.0950
9.2700 1480.7650
9.2800 1576.2625
9.2900 1442.6150
9.3000 1357.7500
9.3100 1406.1025
9.3200 1430.1425
9.3300 1417.1600
9.3400 1133.8975
9.3500 1247.7700
9.3600 1436.5875
9.3700 1536.9450
9.3800 1401.6550
9.3900 1464.0475
9.4000 1302.1200
9.4100 1330.0900
9.4200 1368.7575
9.4300 1387.7225
9.4400 1492.0450
9.4500 1596.6525
9.4600 1479.2075
9.4700 1338.9300
9.4800 1376.6350
9.4900 1488.1750
9.5000 1417.4025
9.5100 1328.7125
9.5200 1271.7700
9.5300 1409.2600
9.5400 1506.4075
9.5500 1343.6000
9.5600 1385.5100
9.5700 1164.8575
9.5800 1341.9450
9.5900 1378.9000
9.6000 1450.7175
9.6100 1375.5575
9.6200 1316.3425
9.6300 1496.3450
9.6400 1600.5625
9.6500 1612.3025
9.6600 1409.1750
9.6700 1243.3300
9.6800 1220.0975
9.6900 1306.0250
9.7000 1450.1725
9.7100 1486.4525
9.7200 1502.6100
9.7300 1389.2500
9.7400 1526.6325
9.7500 1524.7575
9.7600 1547.6875
9.7700 1437.1000
9.7800 1487.9950
9.7900 1499.8150
9.8000 1527.7150
9.8100 1474.6950
9.8200 1406.6525
9.8300 1252.8675
9.8400 1312.8525
9.8500 1284.4275
9.8600 1290.5125
9.8700 1392.2525
9.8800 1437.6800
9.8900 1527.4925
9.9000 1499.0950
9.9100 1305.7675
9.9200 1286.6275
9.9300 1302.7150
9.9400 1290.3725
9.9500 1429.2000
9.9600 1439.4650
9.9700 1478.7750
9.9800 1457.2400
9.9900 1621.4575
10.0000 1495.1400
10.0100 1551.5850
10.0200 1665.6900
10.0300 1669.1875
10.0400 1440.3750
10.0500 1329.2900
10.0600 1175.2625
10.0700 1475.1950
10.0800 1519.1950
10.0900 1375.3050
10.1000 1335.8650
10.1100 1432.2650
10.1200 1379.3400
10.1300 1338.4050
10.1400 1474.6225
10.1500 1528.2550
10.1600 1490.9550
10.1700 1426.8350
10.1800 1430.7900
10.1900 1461.5775
10.2000 1579.6300
10.2100 1529.4050
10.2200 1403.7250
10.2300 1439.7975
10.2400 1421.7700
10.2500 1346.1000
10.2600 1305.1100
10.2700 1469.3275
10.2800 1570.5450
10.2900 1470.4725
10.3000 1435.8925
10.3100 1405.1225
10.3200 1414.1025
10.3300 1473.0750
10.3400 1441.0325
10.3500 1546.1275
10.3600 1524.3725
10.3700 1601.2450
10.3800 1391.1450
10.3900 1462.7500
10.4000 1610.1650
10.4100 1647.4250
10.4200 1523.1950
10.4300 1542.2650
10.4400 1634.5200
10.4500 1466.8900
10.4600 1517.8375
10.4700 1631.9100
10.4800 1410.6200
10.4900 1254.0275
10.5000 1303.7250
10.5100 1584.1300
10.5200 1520.7275
10.5300 1485.9250
10.5400 1539.6250
10.5500 1409.2850
10.5600 1312.9825
10.5700 1300.0000
10.5800 1229.6625
10.5900 1483.9200
10.6000 1252.0425
10.6100 1284.3800
10.6200 1356.2475
10.6300 1380.7275
10.6400 1313.0375
10.6500 1538.9800
10.6600 1456.8275
10.6700 1447.3875
10.6800 1688.9100
10.6900 1649.0200
10.7000 1549.0275
10.7100 1519.2850
10.7200 1544.7625
10.7300 1493.8125
10.7400 1497.3775
10.7500 1668.5275
10.7600 1685.9575
10.7700 1571.0025
10.7800 1578.0800
10.7900 1513.1400
10.8000 1471.9250
10.8100 1438.5950
10.8200 1461.4025
10.8300 1368.4350
10.8400 1364.0325
10.8500 1464.8800
10.8600 1539.4500
10.8700 1395.6950
10.8800 1282.5100
10.8900 1266.6675
10.9000 1477.0200
10.9100 1488.6225
10.9200 1399.2075
10.9300 1369.3150
10.9400 1506.8475
10.9500 1561.3675
10.9600 1454.5425
10.9700 1587.4900
10.9800 1574.6275
10.9900 1328.4725
11.0000 1297.3425
11.0100 1426.0800
11.0200 1450.0000
11.0300 1534.0375
11.0400 1550.0000
11.0500 1367.9550
11.0600 1585.3700
11.0700 1381.3200
11.0800 1361.3325
11.0900 1380.6650
11.1000 1411.3275
11.1100 1444.6575
11.1200 1366.0350
11.1300 1489.9275
11.1400 1390.7450
11.1500 1394.6475
11.1600 1400.0000
11.1700 1344.0500
11.1800 1431.2350
11.1900 1673.7575
11.2000 1590.8150
11.2100 1384.9000
11.2200 1461.8475
11.2300 1511.2925
11.2400 1656.4475
11.2500 1543.5650
11.2600 1502.6900
11.2700 1653.7150
11.2800 1529.6325
11.2900 1360.2850
11.3000 1403.1850
11.3100 1626.2000
11.3200 1513.0225
11.3300 1441.4350
11.3400 1712.6325
11.3500 1752.7025
11.3600 1680.1875
11.3700 1554.9775
11.3800 1658.9700
11.3900 1641.4575
11.4000 1647.2900
11.4100 1580.2200
11.4200 1636.4400
11.4300 1691.8600
11.4400 1588.3850
11.4500 1706.1725
11.4600 1691.4850
11.4700 1711.2300
11.4800 1632.9875
11.4900 1574.8300
11.5000 1580.6100
11.5100 1485.7325
11.5200 1452.7250
11.5300 1505.7600
11.5400 1600.3000
11.5500 1435.4775
11.5600 1330.3175
11.5700 1316.6675
11.5800 1358.4675
11.5900 1408.4650
11.6000 1528.1150
11.6100 1536.0700
11.6200 1547.2625
11.6300 1368.9450
11.6400 1333.3325
11.6500 1667.5275
11.6600 1705.4875
11.6700 1477.2450
11.6800 1656.0675
11.6900 1532.9650
11.7000 1472.1625
11.7100 1466.6675
11.7200 1689.3200
11.7300 1733.3325
11.7400 1649.8550
11.7500 1591.5975
11.7600 1541.6025
11.7700 1575.0625
11.7800 1736.3225
11.7900 1641.5050
11.8000 1421.9875
11.8100 1508.4725
11.8200 1380.4000
11.8300 1419.5100
11.8400 1641.8400
11.8500 1683.3325
11.8600 1766.7200
11.8700 1825.0225
11.8800 1638.7975
11.8900 1627.7875
11.9000 1508.2975
11.9100 1552.7925
11.9200 1386.0925
11.9300 1405.5575
11.9400 1416.6675
11.9500 1416.6675
11.9600 1375.0100
11.9700 1352.7825
11.9800 1377.7650
11.9900 1577.6750
12.0000 1561.1450
12.0100 1605.5175
12.0200 1588.9100
12.0300 1569.4575
12.0400 1705.4200
12.0500 1594.5925
12.0600 1552.7950
12.0700 1660.9725
12.0800 1586.2400
12.0900 1525.0600
12.1000 1475.0625
12.1100 1563.7325
12.1200 1458.5450
12.1300 1461.0625
12.1400 1646.8825
12.1500 1669.4725
12.1600 1514.2025
12.1700 1677.3600
12.1800 1591.9450
12.1900 1635.9500
12.2000 1608.4350
12.2100 1600.0000
12.2200 1807.7950
12.2300 1836.1475
12.2400 1861.0350
12.2500 1852.8175
12.2600 1656.1275
12.2700 1644.3600
12.2800 1663.8450
12.2900 1611.2900
12.3000 1683.0575
12.3100 1769.2100
12.3200 1714.1300
12.3300 1492.4100
12.3400 1602.2200
12.3500 1840.8875
12.3600 1717.3050
12.3700 1641.8300
12.3800 1702.5000
12.3900 1854.9875
12.4000 1910.9950
12.4100 1681.5625
12.4200 1591.8475
12.4300 1804.5675
12.4400 1850.0000
12.4500 1684.1025
12.4600 1719.1175
12.4700 1788.6225
12.4800 1730.8950
12.4900 1813.4050
12.5000 1778.0575
12.5100 1683.7625
12.5200 1901.5425
12.5300 1798.0350
12.5400 1697.5975
12.5500 1752.3975
12.5600 1614.7425
12.5700 1569.5225
12.5800 1608.0925
12.5900 1658.0900
12.6000 1804.7325
12.6100 1929.9700
12.6200 1977.6075
12.6300 1859.1075
12.6400 1819.5325
12.6500 1871.8700
12.6600 1759.1400
12.6700 1747.1325
12.6800 1901.7675
12.6900 2016.1075
12.7000 2019.5400
12.7100 2016.6675
12.7200 2030.4600
12.7300 2074.7075
12.7400 2069.5425
12.7500 1970.1475
12.7600 2170.5975
12.7700 2051.2325
12.7800 2182.0875
12.7900 2106.3950
12.8000 2262.5075
12.8100 2479.1600
12.8200 2516.6675
12.8300 2558.0050
12.8400 2594.2225
12.8500 2710.2125
12.8600 2581.8025
12.8700 2439.8050
12.8800 2526.8525
12.8900 2770.3525
12.9000 2857.9800
12.9100 3155.8300
12.9200 3189.1300
12.9300 3155.8000
12.9400 3273.8950
12.9500 3671.6525
12.9600 3750.0000
12.9700 3887.6250
12.9800 3737.7675
12.9900 4044.0050
13.0000 4034.1125
13.0100 4291.8250
13.0200 4336.2425
13.0300 4305.8225
13.0400 4176.2100
13.0500 4246.2725
13.0600 4225.4100
13.0700 4257.9200
13.0800 4252.9175
13.0900 4442.4800
13.1000 4125.9025
13.1100 4008.7625
13.1200 4233.6650
13.1300 4200.8700
13.1400 4197.0750
13.1500 3774.0125
13.1600 3655.8525
13.1700 3608.7825
13.1800 3448.8800
13.1900 3279.2975
13.2000 3263.7350
13.2100 3335.3400
13.2200 3253.8650
13.2300 3027.3500
13.2400 3024.5275
13.2500 2868.5725
13.2600 2750.9600
13.2700 2692.1500
13.2800 2504.8875
13.2900 2384.3150
13.3000 2421.5625
13.3100 2309.8250
13.3200 2036.3375
13.3300 2271.4700
13.3400 2360.7725
13.3500 2215.7625
13.3600 2293.0725
13.3700 2179.5050
13.3800 1903.1275
13.3900 1808.8575
13.4000 1937.1275
13.4100 1966.6675
13.4200 2131.1925
13.4300 2070.7000
13.4400 1885.5000
13.4500 1836.2925
13.4600 1915.5700
13.4700 2029.2675
13.4800 1954.0750
13.4900 1905.9275
13.5000 1776.6875
13.5100 1681.4975
13.5200 1721.4625
13.5300 1747.0325
13.5400 1832.1825
13.5500 1904.7825
13.5600 2149.4750
13.5700 1857.6625
13.5800 1824.4100
13.5900 1764.8775
13.6000 1832.1400
13.6100 1699.4200
13.6200 1735.1050
13.6300 1572.0725
13.6400 1902.8450
13.6500 2092.8100
13.6600 2048.2500
13.6700 1992.2875
13.6800 1969.6525
13.6900 1775.1450
13.7000 1774.3700
13.7100 1892.7550
13.7200 1738.8700
13.7300 1700.0000
13.7400 1617.9525
13.7500 1627.3475
13.7600 1633.3325
13.7700 1660.6750
13.7800 1789.6975
13.7900 1679.9775
13.8000 1745.6750
13.8100 1630.0000
13.8200 1736.6550
13.8300 1643.6875
13.8400 1562.0125
13.8500 1768.5950
13.8600 1843.9900
13.8700 1686.0800
13.8800 1622.6825
13.8900 1616.6675
13.9000 1657.6375
13.9100 1871.5000
13.9200 1670.8850
13.9300 1616.6675
13.9400 1548.4050
13.9500 1669.8450
13.9600 1672.7000
13.9700 1707.6150
13.9800 1675.7225
13.9900 1762.1950
14.0000 1796.9800
14.0100 1759.0650
14.0200 1831.8625
14.0300 1959.1400
14.0400 1956.0500
14.0500 2045.4825
14.0600 1943.9150
14.0700 1834.8375
14.0800 1693.9325
14.0900 1762.1175
14.1000 1851.5075
14.1100 1825.7650
14.1200 1762.1350
14.1300 2009.0000
14.1400 2134.8200
14.1500 1945.5575
14.1600 1790.9725
14.1700 1793.9200
14.1800 1840.8775
14.1900 1809.1250
14.2000 1895.3675
14.2100 1848.5525
14.2200 1874.2000
14.2300 2087.6450
14.2400 2119.7125
14.2500 2211.9975
14.2600 2124.3925
14.2700 1814.0550
14.2800 1995.0775
14.2900 2281.4425
14.3000 2183.5875
14.3100 2095.5525
14.3200 2314.7225
14.3300 2257.7875
14.3400 1961.1550
14.3500 1886.3925
14.3600 1992.1875
14.3700 2179.9350
14.3800 2135.0375
14.3900 2225.4950
14.4000 2345.2175
14.4100 2421.0725
14.4200 2161.3250
14.4300 2331.1900
14.4400 2288.1450
14.4500 2239.4725
14.4600 2355.7000
14.4700 2641.6400
14.4800 2387.3375
14.4900 2493.3750
14.5000 2560.5175
14.5100 2716.1675
14.5200 2872.3075
14.5300 2954.3550
14.5400 3156.8950
14.5500 3254.3475
14.5600 3443.2800
14.5700 3700.6850
14.5800 3899.4175
14.5900 4449.4675
14.6000 4946.9450
14.6100 5386.4225
14.6200 6118.4725
14.6300 6578.9675
14.6400 7858.3700
14.6500 8866.4450
14.6600 10322.9675
14.6700 11403.9625
14.6800 13022.0725
14.6900 14191.4625
14.7000 15808.2800
14.7100 17069.6550
14.7200 18803.0425
14.7300 20398.2375
14.7400 20642.6325
14.7500 20904.6475
14.7600 21115.8775
14.7700 20444.6900
14.7800 18574.4450
14.7900 17328.9550
14.8000 15736.6000
14.8100 13911.5625
14.8200 12048.1200
14.8300 10235.7975
14.8400 9018.8350
14.8500 7474.6875
14.8600 6366.9625
14.8700 5288.8175
14.8800 4771.6325
14.8900 4185.0525
14.9000 4134.4175
14.9100 3879.0175
14.9200 3423.7700
14.9300 3103.0325
14.9400 3090.6375
14.9500 2923.9150
14.9600 2707.2600
14.9700 2558.3225
14.9800 2750.0050
14.9900 2678.1325
15.0000 2487.5200
15.0100 2382.3050
15.0200 2366.6675
15.0300 2502.0350
15.0400 2560.4050
15.0500 2255.3650
15.0600 2251.0025
15.0700 2374.9300
15.0800 2332.3400
15.0900 2343.7275
15.1000 2255.2925
15.1100 2409.2075
15.1200 2165.9175
15.1300 2235.2675
15.1400 2361.3475
15.1500 2275.1350
15.1600 2250.0000
15.1700 2236.4775
15.1800 2219.8125
15.1900 1973.2950
15.2000 1889.6275
15.2100 1950.9275
15.2200 2020.7375
15.2300 1925.2000
15.2400 1927.0300
15.2500 2027.9350
15.2600 1995.9450
15.2700 2050.8950
15.2800 2134.2250
15.2900 2014.8950
15.3000 2037.3725
15.3100 2104.0350
15.3200 1995.0975
15.3300 1993.6800
15.3400 2162.0675
15.3500 1970.4225
15.3600 2024.6950
15.3700 1914.9750
15.3800 2004.8475
15.3900 2154.8375
15.4000 1953.8400
15.4100 1846.0050
15.4200 1981.8075
15.4300 2111.1425
15.4400 2092.8475
15.4500 1840.4300
15.4600 1769.8400
15.4700 2023.0275
15.4800 2137.3000
15.4900 1934.1500
15.5000 1721.4575
15.5100 1831.7100
15.5200 1785.7400
15.5300 1847.5875
15.5400 1839.6950
15.5500 1725.4550
15.5600 1915.7400
15.5700 2088.0125
15.5800 1887.4775
15.5900 1833.3325
15.6000 2049.0100
15.6100 2032.6050
15.6200 1881.8875
15.6300 1755.6625
15.6400 1814.1875
15.6500 1819.8575
15.6600 1776.2450
15.6700 1834.0325
15.6800 2025.1350
15.6900 1851.1300
15.7000 1894.2900
15.7100 1728.1000
15.7200 1871.8875
15.7300 2132.1400
15.7400 2129.4700
15.7500 1928.1550
15.7600 2031.4400
15.7700 1905.1075
15.7800 2082.0625
15.7900 2133.3325
15.8000 1891.0475
15.8100 1981.3850
15.8200 2124.3325
15.8300 2001.9675
15.8400 2074.3175
15.8500 2140.3675
15.8600 2069.2725
15.8700 2117.2675
15.8800 2025.7125
15.8900 1905.8375
15.9000 1923.6850
15.9100 2188.8775
15.9200 2142.4100
15.9300 2116.6675
15.9400 2022.5400
15.9500 1973.1075
15.9600 1939.7775
15.9700 2040.8850
15.9800 1972.5650
15.9900 1976.8850
16.0000 1956.4500
16.0100 1923.1200
16.0200 2131.6925
16.0300 2411.7825
16.0400 2318.8575
16.0500 2229.5875
16.0600 2122.6200
16.0700 1992.5250
16.0800 1886.0650
16.0900 1853.2350
16.1000 1984.3150
16.1100 1828.6375
16.1200 1850.4825
16.1300 1826.3800
16.1400 1964.3725
16.1500 1973.1475
16.1600 1953.2400
16.1700 1950.0000
16.1800 1654.6725
16.1900 1838.3700
16.2000 2034.2200
16.2100 2174.0350
16.2200 2079.2175
16.2300 2076.8375
16.2400 1989.4050
16.2500 2020.3350
16.2600 2033.3325
16.2700 1952.8400
16.2800 2040.6500
16.2900 2160.5625
16.3000 2076.0325
16.3100 2184.1175
16.3200 2176.4350
16.3300 1911.8800
16.3400 1702.5025
16.3500 1827.5625
16.3600 2014.1450
16.3700 1889.1250
16.3800 1863.4050
16.3900 1920.2850
16.4000 2080.7700
16.4100 1996.0450
16.4200 1993.4700
16.4300 1986.6000
16.4400 1809.1375
16.4500 1927.4500
16.4600 2100.6450
16.4700 1878.7925
16.4800 1803.2700
16.4900 1746.4200
16.5000 1786.9100
16.5100 1853.5725
16.5200 2080.9425
16.5300 2026.2025
16.5400 2053.5625
16.5500 2080.0550
16.5600 2110.1100
16.5700 2223.7675
16.5800 2303.5475
16.5900 2115.8800
16.6000 2053.2825
16.6100 2090.1525
16.6200 2100.0000
16.6300 1966.1800
16.6400 1986.8575
16.6500 2107.0425
16.6600 2146.7125
16.6700 1962.7025
16.6800 1916.6675
16.6900 2023.6800
16.7000 1942.9950
16.7100 1970.1650
16.7200 2103.6975
16.7300 2226.9450
16.7400 2276.7450
16.7500 2082.7650
16.7600 1979.8525
16.7700 2033.5125
16.7800 2036.6325
16.7900 2006.5975
16.8000 2066.8325
16.8100 1989.7725
16.8200 2247.3275
16.8300 2249.8475
16.8400 2113.0650
16.8500 2016.5225
16.8600 2106.8900
16.8700 2066.5325
16.8800 2090.0775
16.8900 2113.3575
16.9000 2183.4550
16.9100 2133.2175
16.9200 2130.0225
16.9300 2079.9125
16.9400 1973.1875
16.9500 2150.2975
16.9600 2119.8875
16.9700 2100.0000
16.9800 1993.1975
16.9900 1953.3175
17.0000 1990.0450
17.0100 2360.3900
17.0200 2263.1450
17.0300 1989.7850
17.0400 1946.6775
17.0500 2030.0650
17.0600 2210.1200
17.0700 2223.3150
17.0800 2270.0325
17.0900 2269.9925
17.1000 2093.2500
17.1100 2156.7100
17.1200 2250.0225
17.1300 2106.6225
17.1400 1853.2875
17.1500 1853.3400
17.1600 2093.3525
17.1700 2096.6650
17.1800 2056.6675
17.1900 2116.6600
17.2000 2173.3250
17.2100 1943.3925
17.2200 2123.2575
17.2300 2303.2875
17.2400 2386.6425
17.2500 2080.1650
17.2600 2066.6275
17.2700 2149.9575
17.2800 2100.0475
17.2900 2056.6875
17.3000 1996.7125
17.3100 1983.3325
17.3200 2103.2175
17.3300 2213.2500
17.3400 2233.3325
17.3500 2113.4750
17.3600 2163.2350
17.3700 2289.8600
17.3800 2223.4600
17.3900 2186.6850
17.4000 2276.5275
17.4100 2126.9375
17.4200 1910.2825
17.4300 1879.9775
17.4400 2056.3625
17.4500 2086.6900
17.4600 2136.5650
17.4700 2043.5425
17.4800 2229.5700
17.4900 2203.5000
17.5000 2156.7250
17.5100 2150.0000
17.5200 2123.3950
17.5300 2302.8950
17.5400 2283.4950
17.5500 2293.2675
17.5600 2113.8075
17.5700 2119.8600
17.5800 2000.3550
17.5900 2099.6350
17.6000 2226.4050
17.6100 2090.4575
17.6200 2050.0000
17.6300 1956.9450
17.6400 2092.8450
17.6500 1747.8725
17.6600 1836.0725
17.6700 2215.5850
17.6800 2246.8425
17.6900 2020.7200
17.7000 2059.6800
17.7100 2256.0600
17.7200 2180.4275
17.7300 2309.4200
17.7400 2416.4200
17.7500 2313.7850
17.7600 2256.7675
17.7700 2449.2225
17.7800 2433.5975
17.7900 2403.3875
17.8000 2400.0000
17.8100 2280.4975
17.8200 2303.1100
17.8300 2369.7725
17.8400 2449.7125
17.8500 2440.1175
17.8600 2327.1425
17.8700 2313.2725
17.8800 2237.0325
17.8900 2123.7675
17.9000 2192.8925
17.9100 2402.4425
17.9200 2330.5800
17.9300 2246.9275
17.9400 2113.9300
17.9500 2136.3975
17.9600 2256.1250
17.9700 2323.1275
17.9800 2306.8050
17.9900 2140.8450
18.0000 2272.4075
18.0100 2263.6225
18.0200 2369.3450
18.0300 2346.9625
18.0400 2293.5575
18.0500 2044.6900
18.0600 2115.9050
18.0700 2070.4625
18.0800 2023.4900
18.0900 2016.6675
18.1000 2188.9650
18.1100 2312.8500
18.1200 2373.0900
18.1300 2317.0775
18.1400 2353.0025
18.1500 2366.6675
18.1600 2313.6725
18.1700 2220.5125
18.1800 2292.7300
18.1900 2369.6525
18.2000 2250.8775
18.2100 2296.1350
18.2200 2276.9350
18.2300 2293.1525
18.2400 2207.3050
18.2500 2183.3325
18.2600 2249.5350
18.2700 2107.7900
18.2800 2304.9675
18.2900 2340.1900
18.3000 2200.9600
18.3100 2087.2475
18.3200 2013.7250
18.3300 2066.1750
18.3400 2070.1000
18.3500 2265.1650
18.3600 2329.9000
18.3700 2293.6400
18.3800 2349.4875
18.3900 2234.3675
18.4000 2213.2300
18.4100 2309.2650
18.4200 2359.7875
18.4300 2234.4000
18.4400 2173.5475
18.4500 2259.2425
18.4600 2323.0050
18.4700 2240.7700
18.4800 2203.4450
18.4900 2411.5475
18.5000 2241.9100
18.5100 2236.2150
18.5200 2435.0700
18.5300 2337.9300
18.5400 2154.6050
18.5500 2447.0875
18.5600 2427.6050
18.5700 2333.9225
18.5800 2263.8100
18.5900 2382.1375
18.6000 2337.3900
18.6100 2382.7275
18.6200 2439.6325
18.6300 2344.3175
18.6400 2369.5050
18.6500 2409.7500
18.6600 2271.3775
18.6700 2286.1625
18.6800 2220.7625
18.6900 2200.0000
18.7000 2371.6625
18.7100 2509.0950
18.7200 2414.5050
18.7300 2290.9175
18.7400 2332.6750
18.7500 2614.0150
18.7600 2802.1325
18.7700 2661.7425
18.7800 2603.4675
18.7900 2679.1850
18.8000 2502.0475
18.8100 2436.8050
18.8200 2644.4575
18.8300 2660.4175
18.8400 2333.3525
18.8500 2263.1925
18.8600 2187.5150
18.8700 2140.2850
18.8800 2212.4750
18.8900 2404.8000
18.9000 2318.1100
18.9100 2454.7775
18.9200 2579.1250
18.9300 2560.4400
18.9400 2536.8150
18.9500 2427.8550
18.9600 2281.3425
18.9700 2500.4850
18.9800 2593.0325
18.9900 2679.0900
19.0000 2673.6375
19.0100 2495.3250
19.0200 2291.8475
19.0300 2460.8575
19.0400 2622.0900
19.0500 2518.2300
19.0600 2536.0375
19.0700 2747.6325
19.0800 2760.4750
19.0900 2565.5650
19.1000 2529.8400
19.1100 2612.3675
19.1200 2672.8475
19.1300 2538.4550
19.1400 2447.3200
19.1500 2551.8575
19.1600 2517.4900
19.1700 2710.6825
19.1800 2661.3300
19.1900 2646.5000
19.2000 2610.5050
19.2100 2613.1650
19.2200 2524.5200
19.2300 2407.8575
19.2400 2317.5225
19.2500 2392.1300
19.2600 2456.1500
19.2700 2650.9050
19.2800 2568.4075
19.2900 2454.3825
19.3000 2446.4900
19.3100 2384.2150
19.3200 2682.4125
19.3300 2608.8025
19.3400 2698.2125
19.3500 2628.1025
19.3600 2823.6025
19.3700 2738.6575
19.3800 2581.6375
19.3900 2615.7525
19.4000 2554.4325
19.4100 2677.9750
19.4200 2887.5950
19.4300 2801.8575
19.4400 2608.9050
19.4500 2606.1050
19.4600 2642.9575
19.4700 2636.8550
19.4800 2633.3325
19.4900 2712.1925
19.5000 2575.6250
19.5100 2559.6175
19.5200 2724.3550
19.5300 2792.9475
19.5400 2747.4425
19.5500 2601.9475
19.5600 2592.9425
19.5700 2718.2325
19.5800 2461.0025
19.5900 2685.4500
19.6000 2714.1275
19.6100 2686.8650
19.6200 2709.6000
19.6300 2480.2825
19.6400 2469.1925
19.6500 2627.7725
19.6600 2824.2300
19.6700 2590.9500
19.6800 2464.1525
19.6900 2594.4075
19.7000 2712.0975
19.7100 2798.9650
19.7200 2632.9075
19.7300 2596.4575
19.7400 2704.9925
19.7500 2930.1850
19.7600 2615.9000
19.7700 2529.7875
19.7800 2651.4225
19.7900 2643.9725
19.8000 2620.2125
19.8100 2669.1425
19.8200 2853.8700
19.8300 2768.8250
19.8400 2864.5000
19.8500 2821.3050
19.8600 2760.6550
19.8700 2684.4275
19.8800 2614.2125
19.8900 2613.1125
19.9000 2656.0025
19.9100 2758.4475
19.9200 2901.3300
19.9300 2789.1250
19.9400 2802.4375
19.9500 2842.8825
19.9600 2941.7550
19.9700 2809.3825
19.9800 2805.9850
19.9900 2777.3500
20.0000 2530.7800
20.0100 2689.4350
20.0200 2802.4125
20.0300 2934.5900
20.0400 2927.3600
20.0500 2824.9600
20.0600 2800.0000
20.0700 2695.2025
20.0800 2666.6675
20.0900 2601.1750
20.1000 2753.6000
20.1100 2813.0975
20.1200 2711.9000
20.1300 2919.0475
20.1400 2970.2400
20.1500 2979.7600
20.1600 2826.2175
20.1700 2874.9800
20.1800 3188.0125
20.1900 3057.2150
20.2000 3065.4500
20.2100 2860.8150
20.2200 2616.7600
20.2300 2749.8975
20.2400 2930.8725
20.2500 3005.9250
20.2600 3055.9225
20.2700 3001.2425
20.2800 2917.9125
20.2900 2729.9150
20.3000 2735.6650
20.3100 2880.8200
20.3200 2772.7725
20.3300 2851.0575
20.3400 2909.4925
20.3500 3008.2200
20.3600 2954.8625
20.3700 3064.1100
20.3800 3021.5375
20.3900 2921.5425
20.4000 3043.8300
20.4100 2887.2125
20.4200 2977.1475
20.4300 3330.4275
20.4400 3129.0675
20.4500 2932.3525
20.4600 2952.2850
20.4700 2940.5250
20.4800 2998.6825
20.4900 3082.0125
20.5000 3034.6575
20.5100 3212.6800
20.5200 3332.0000
20.5300 3154.0075
20.5400 3021.6075
20.5500 3143.7125
20.5600 3144.1425
20.5700 2976.5725
20.5800 3129.2725
20.5900 3261.7050
20.6000 3244.1500
20.6100 3181.0925
20.6200 3349.5025
20.6300 3530.5900
20.6400 3631.9575
20.6500 3663.0575
20.6600 3771.1225
20.6700 3943.6175
20.6800 4126.9425
20.6900 4062.2275
20.7000 4255.2525
20.7100 4656.0525
20.7200 4828.3150
20.7300 4667.2725
20.7400 4316.4900
20.7500 4559.5950
20.7600 4597.8000
20.7700 4635.5300
20.7800 4349.8875
20.7900 4227.5225
20.8000 3890.4925
20.8100 3982.6475
20.8200 4098.5600
20.8300 4116.6675
20.8400 3921.0050
20.8500 3644.9275
20.8600 3400.7350
20.8700 3180.4550
20.8800 3029.0025
20.8900 3273.8525
20.9000 3284.8000
20.9100 3227.5500
20.9200 3229.7050
20.9300 3089.9175
20.9400 2906.5925
20.9500 3088.2850
20.9600 2993.5725
20.9700 3158.5600
20.9800 3320.9400
20.9900 3089.3275
21.0000 3068.7975
21.0100 3291.8475
21.0200 3102.4025
21.0300 3176.6725
21.0400 3112.4250
21.0500 3096.3625
21.0600 3047.8850
21.0700 3046.3625
21.0800 3141.1900
21.0900 3114.5600
21.1000 3060.9225
21.1100 3297.4800
21.1200 3340.6175
21.1300 3229.1425
21.1400 3160.9300
21.1500 3136.9775
21.1600 3185.4200
21.1700 3069.7900
21.1800 3228.6400
21.1900 3296.3525
21.2000 3352.0750
21.2100 3327.6125
21.2200 3134.4200
21.2300 2953.1650
21.2400 3098.8950
21.2500 3123.9700
21.2600 3038.5775
21.2700 3263.9350
21.2800 3281.2800
21.2900 3253.6550
21.3000 3171.9275
21.3100 3150.0000
21.3200 3136.9900
21.3300 3146.3425
21.3400 3136.9900
21.3500 3133.3325
21.3600 3380.4850
21.3700 3423.9850
21.3800 3338.6275
21.3900 3251.6375
21.4000 3363.3850
21.4100 3165.9175
21.4200 3034.9800
21.4300 3133.6950
21.4400 3374.7075
21.4500 3394.3275
21.4600 3565.3500
21.4700 3577.6650
21.4800 3540.6675
21.4900 3338.3475
21.5000 3348.3250
21.5100 3340.6700
21.5200 3307.3400
21.5300 3442.9600
21.5400 3470.3375
21.5500 3453.6725
21.5600 3411.0175
21.5700 3646.8800
21.5800 3846.5975
21.5900 3961.2875
21.6000 3697.5175
21.6100 3850.5050
21.6200 3851.7150
21.6300 4197.0425
21.6400 4351.9550
21.6500 4379.6550
21.6600 4526.1975
21.6700 4943.2875
21.6800 4842.2200
21.6900 5030.0600
21.7000 5515.5175
21.7100 5880.0325
21.7200 5833.1475
21.7300 5774.0350
21.7400 5935.4350
21.7500 6009.2975
21.7600 6081.5700
21.7700 6074.0400
21.7800 5910.9125
21.7900 5607.0900
21.8000 5390.5725
21.8100 5324.0450
21.8200 5044.1525
21.8300 4707.1425
21.8400 4568.4550
21.8500 4627.8500
21.8600 4208.8775
21.8700 4174.1475
21.8800 4018.3800
21.8900 3901.8050
21.9000 3935.2200
21.9100 3573.8450
21.9200 3349.9350
21.9300 3563.0875
21.9400 3646.3025
21.9500 3572.1900
21.9600 3459.2275
21.9700 3225.8625
21.9800 3270.3950
21.9900 3468.5525
22.0000 3335.1575
22.0100 3283.3325
22.0200 3296.2975
22.0300 3546.2950
22.0400 3655.5525
22.0500 3485.2050
22.0600 3394.4500
22.0700 3435.1750
22.0800 3618.4750
22.0900 3498.2000
22.1000 3294.5000
22.1100 3133.3825
22.1200 3307.3100
22.1300 3275.9725
22.1400 3509.1125
22.1500 3570.3775
22.1600 3553.7125
22.1700 3640.6750
22.1800 3679.6200
22.1900 3320.6675
22.2000 3242.5700
22.2100 3470.1675
22.2200 3481.5325
22.2300 3479.6175
22.2400 3327.9450
22.2500 3205.6425
22.2600 3442.2875
22.2700 3348.3550
22.2800 3481.2500
22.2900 3623.9550
22.3000 3494.6575
22.3100 3346.4450
22.3200 3394.3300
22.3300 3351.9500
22.3400 3255.6775
22.3500 3401.5775
22.3600 3631.1775
22.3700 3851.5600
22.3800 3615.3225
22.3900 3391.0025
22.4000 3479.3850
22.4100 3594.2950
22.4200 3513.1675
22.4300 3755.0025
22.4400 3820.3975
22.4500 3480.3475
22.4600 3215.1825
22.4700 3541.7550
22.4800 3688.8000
22.4900 3609.4700
22.5000 3893.7050
22.5100 3466.0750
22.5200 3458.9050
22.5300 3512.9300
22.5400 3439.0900
22.5500 3300.3075
22.5600 3344.2350
22.5700 3250.3175
22.5800 3410.5700
22.5900 3492.5200
22.6000 3163.9325
22.6100 3286.3925
22.6200 3466.3200
22.6300 3512.9225
22.6400 3542.5125
22.6500 3420.7750
22.6600 3486.7075
22.6700 3684.6425
22.6800 3604.1275
22.6900 3618.3450
22.7000 3504.1400
22.7100 3595.8525
22.7200 3194.1225
22.7300 3131.2525
22.7400 3240.4175
22.7500 3486.2400
22.7600 3537.0850
22.7700 3546.2475
22.7800 3485.4300
22.7900 3350.4450
22.8000 3200.4500
22.8100 3463.6475
22.8200 3627.4700
22.8300 3662.9100
22.8400 3821.5900
22.8500 3595.5625
22.8600 3219.7600
22.8700 3430.2275
22.8800 3671.5600
22.8900 3665.0375
22.9000 3675.8125
22.9100 3502.6525
22.9200 3617.7675
22.9300 3886.0450
22.9400 3627.4000
22.9500 3546.2375
22.9600 3627.4150
22.9700 4049.9650
22.9800 3908.6375
22.9900 3846.2350
23.0000 3772.6000
23.0100 3659.7025
23.0200 3543.0400
23.0300 3542.4625
23.0400 3691.8750
23.0500 3565.6725
23.0600 3632.7350
23.0700 3589.2925
23.0800 3334.5550
23.0900 3240.8775
23.1000 3465.4225
23.1100 3417.2950
23.1200 3666.9700
23.1300 3479.2675
23.1400 3451.5650
23.1500 3582.6825
23.1600 3526.4350
23.1700 3757.7900
23.1800 3833.3325
23.1900 3910.6625
23.2000 3843.1200
23.2100 3971.3100
23.2200 4016.6675
23.2300 3758.9525
23.2400 3490.0575
23.2500 3600.8300
23.2600 3740.1875
23.2700 3599.1850
23.2800 3588.6475
23.2900 3574.2350
23.3000 3682.5975
23.3100 3948.5200
23.3200 3913.6250
23.3300 4050.7650
23.3400 3996.9700
23.3500 3928.0325
23.3600 3839.4000
23.3700 3778.0350
23.3800 3586.3975
23.3900 3919.6050
23.4000 3814.4575
23.4100 3544.0075
23.4200 3560.5775
23.4300 3827.9250
23.4400 3887.1275
23.4500 3728.8700
23.4600 3644.7200
23.4700 3736.3000
23.4800 3663.7050
23.4900 3427.4200
23.5000 3469.6175
23.5100 3461.3950
23.5200 3450.0000
23.5300 3475.7350
23.5400 3521.9325
23.5500 3636.2600
23.5600 3692.3975
23.5700 3519.8950
23.5800 3440.9400
23.5900 3703.4625
23.6000 3937.6850
23.6100 3623.1950
23.6200 3503.8050
23.6300 3307.0875
23.6400 3237.1400
23.6500 3426.2275
23.6600 3599.0650
23.6700 3646.1925
23.6800 3585.7100
23.6900 3618.0950
23.7000 3581.9075
23.7100 3476.6750
23.7200 3501.4225
23.7300 3773.7625
23.7400 3811.4375
23.7500 3645.7575
23.7600 3612.8525
23.7700 3809.4500
23.7800 3635.3375
23.7900 3656.6250
23.8000 3606.2300
23.8100 3647.5825
23.8200 3538.1750
23.8300 3397.2100
23.8400 3289.5775
23.8500 3343.7500
23.8600 3392.3600
23.8700 3708.3075
23.8800 4044.0650
23.8900 3795.5425
23.9000 3545.8675
23.9100 3525.6875
23.9200 3687.4500
23.9300 3823.2300
23.9400 3785.7900
23.9500 3740.9850
23.9600 3694.8125
23.9700 3657.6525
23.9800 3688.5175
23.9900 3918.2600
24.0000 3893.4650
24.0100 3738.2900
24.0200 3725.6750
24.0300 3463.7675
24.0400 3460.3475
24.0500 3483.3325
24.0600 3586.0100
24.0700 3655.1675
24.0800 3705.1675
24.0900 3729.5000
24.1000 3682.0050
24.1100 3782.1500
24.1200 3572.8775
24.1300 3500.0000
24.1400 3653.9575
24.1500 3648.6825
24.1600 3710.3050
24.1700 3784.6450
24.1800 3928.2750
24.1900 3569.0375
24.2000 3501.3050
24.2100 3888.6075
24.2200 3666.5500
24.2300 3541.0175
24.2400 3828.2800
24.2500 3801.2575
24.2600 3471.7475
24.2700 3665.4175
24.2800 4057.7125
24.2900 4008.9725
24.3000 3697.4425
24.3100 3603.8475
24.3200 3779.4650
24.3300 3871.7875
24.3400 3908.9700
24.3500 3967.9350
24.3600 3855.1675
24.3700 3842.2975
24.3800 3747.4775
24.3900 3665.4075
24.4000 3790.9550
24.4100 3730.8250
24.4200 3430.9275
24.4300 3478.1250
24.4400 3798.5250
24.4500 3729.6000
24.4600 3593.6600
24.4700 3810.0575
24.4800 4088.2825
24.4900 3714.5000
24.5000 3596.1425
24.5100 3779.3075
24.5200 3602.8075
24.5300 3430.8825
24.5400 3579.2825
24.5500 3697.3600
24.5600 3652.6425
24.5700 3735.7650
24.5800 3638.6325
24.5900 3446.3650
24.6000 3335.9875
24.6100 3636.7075
24.6200 4066.1600
24.6300 3974.6600
24.6400 3443.0700
24.6500 3389.5950
24.6600 3583.0500
24.6700 3799.7075
24.6800 3734.8225
24.6900 3610.4225
24.7000 3647.3150
24.7100 3717.8500
24.7200 3682.1525
24.7300 3692.2550
24.7400 3751.1750
24.7500 3779.4600
24.7600 3591.4425
24.7700 3827.5525
24.7800 3852.7075
24.7900 3794.9600
24.8000 3591.4775
24.8100 3674.0225
24.8200 3806.1925
24.8300 3539.1950
24.8400 3552.3050
24.8500 3596.1200
24.8600 3702.2950
24.8700 3925.1275
24.8800 3881.0475
24.8900 3773.2900
24.9000 3622.1550
24.9100 3621.6850
24.9200 3646.1175
24.9300 3726.6975
24.9400 3928.9500
24.9500 3804.3900
24.9600 3558.2850
24.9700 3857.8525
24.9800 3953.8875
24.9900 3758.3125
25.0000 3815.0075
25.0100 3594.4375
25.0200 3593.3325
25.0300 3680.5500
25.0400 3572.2375
25.0500 3712.1925
25.0600 3881.6425
25.0700 3610.0775
25.0800 3631.6325
25.0900 3832.7200
25.1000 3653.4225
25.1100 3685.5100
25.1200 3844.3825
25.1300 3781.1650
25.1400 3826.6225
25.1500 3901.0800
25.1600 4006.0525
25.1700 3765.1900
25.1800 3798.2475
25.1900 3705.6575
25.2000 3794.3375
25.2100 3743.9675
25.2200 3703.9000
25.2300 3968.0700
25.2400 3858.5300
25.2500 3914.8775
25.2600 3962.7625
25.2700 3941.1400
25.2800 3946.0950
25.2900 4141.4250
25.3000 4378.6550
25.3100 4458.8550
25.3200 4351.8275
25.3300 4342.1850
25.3400 4617.9350
25.3500 4419.3175
25.3600 4384.3650
25.3700 4540.3275
25.3800 4238.9075
25.3900 4209.8700
25.4000 4322.6200
25.4100 4324.4900
25.4200 4227.3875
25.4300 4187.2475
25.4400 4132.3200
25.4500 4129.4200
25.4600 4146.0850
25.4700 3984.2325
25.4800 3793.0750
25.4900 3673.5000
25.5000 3802.9950
25.5100 3977.4900
25.5200 3978.4225
25.5300 3915.6750
25.5400 3785.2750
25.5500 3775.4925
25.5600 3796.0800
25.5700 3863.7275
25.5800 3743.1400
25.5900 3496.0900
25.6000 3560.7700
25.6100 3536.2850
25.6200 3605.8650
25.6300 3671.5600
25.6400 3874.4550
25.6500 3691.2575
25.6600 3769.5500
25.6700 3880.3650
25.6800 3798.0875
25.6900 3741.1900
25.7000 3797.0225
25.7100 3867.6175
25.7200 4010.7025
25.7300 3973.5825
25.7400 3848.1150
25.7500 3931.2825
25.7600 4119.4825
25.7700 3771.9125
25.7800 3713.6675
25.7900 3733.3325
25.8000 3593.2775
25.8100 3715.5125
25.8200 3817.5900
25.8300 3833.3325
25.8400 3807.8725
25.8500 3710.8950
25.8600 3543.3150
25.8700 3550.9125
25.8800 3579.3950
25.8900 3786.9675
25.9000 3939.0850
25.9100 3992.1175
25.9200 3872.7450
25.9300 3884.2325
25.9400 3938.1725
25.9500 3797.3150
25.9600 3877.2300
25.9700 4005.7250
25.9800 3829.7825
25.9900 3575.8450
26.0000 3656.5950
26.0100 3674.5600
26.0200 3679.3875
26.0300 3924.9975
26.0400 3834.6600
26.0500 3465.3850
26.0600 3239.4925
26.0700 3454.3375
26.0800 3698.6450
26.0900 3686.4225
26.1000 3679.3825
26.1100 3619.7600
26.1200 3905.1350
26.1300 3631.3100
26.1400 3796.3500
26.1500 3883.3325
26.1600 3743.5050
26.1700 3738.1325
26.1800 3927.9475
26.1900 3691.0025
26.2000 3777.9325
26.2100 3795.2075
26.2200 3732.5000
26.2300 3703.9600
26.2400 3687.2925
26.2500 3530.8550
26.2600 3610.3925
26.2700 3586.4725
26.2800 3642.8950
26.2900 3514.2150
26.3000 3822.3725
26.3100 3793.5975
26.3200 3750.0000
26.3300 3750.0000
26.3400 3559.4775
26.3500 3576.2050
26.3600 3854.0075
26.3700 3768.2375
26.3800 3640.4725
26.3900 3794.4475
26.4000 3799.2075
26.4100 3783.3325
26.4200 3796.0300
26.4300 3495.2875
26.4400 3298.4325
26.4500 3545.9625
26.4600 3887.2275
26.4700 3890.5025
26.4800 3853.9725
26.4900 3710.3775
26.5000 3755.5125
26.5100 3846.7925
26.5200 3777.8275
26.5300 3737.3100
26.5400 3593.7425
26.5500 3753.0325
26.5600 3918.1800
26.5700 3924.6225
26.5800 3675.5975
26.5900 3574.6250
26.6000 3668.1600
26.6100 3826.8625
26.6200 3714.4400
26.6300 3438.3350
26.6400 3582.3025
26.6500 3599.2650
26.6600 3380.4000
26.6700 3595.6875
26.6800 3607.2400
26.6900 3659.4225
26.7000 3696.0150
26.7100 3471.7500
26.7200 3666.2800
26.7300 3699.2825
26.7400 3683.3325
26.7500 3379.0550
26.7600 3245.3000
26.7700 3537.5850
26.7800 3557.2725
26.7900 3533.3325
26.8000 3546.0100
26.8100 3511.9750
26.8200 3664.7675
26.8300 3488.5375
26.8400 3289.9350
26.8500 3288.0175
26.8600 3578.7875
26.8700 3590.6375
26.8800 3617.3500
26.8900 3760.0375
26.9000 3597.2825
26.9100 3647.3575
26.9200 3569.3150
26.9300 3457.3250
26.9400 3433.3325
26.9500 3382.6650
26.9600 3569.3300
26.9700 3873.9850
26.9800 3734.6900
26.9900 3856.6375
27.0000 3764.6950
27.0100 3666.0125
27.0200 3624.6750
27.0300 3907.9050
27.0400 3835.3950
27.0500 3580.7500
27.0600 3617.9525
27.0700 3586.6975
27.0800 3579.3275
27.0900 3431.4225
27.1000 3661.8225
27.1100 3876.5800
27.1200 3625.5450
27.1300 3621.9325
27.1400 3687.9700
27.1500 3649.3775
27.1600 3519.4350
27.1700 3508.6425
27.1800 3769.7500
27.1900 3685.5025
27.2000 3443.5375
27.2100 3395.9850
27.2200 3564.4750
27.2300 3540.7575
27.2400 3491.3650
27.2500 3711.0375
27.2600 3758.0350
27.2700 3648.8075
27.2800 3641.9650
27.2900 3713.2400
27.3000 3758.6275
27.3100 3716.0800
27.3200 3624.1225
27.3300 3650.5825
27.3400 3894.2800
27.3500 3726.4175
27.3600 3586.7800
27.3700 3440.2325
27.3800 3336.7850
27.3900 3341.9525
27.4000 3438.4925
27.4100 3466.6675
27.4200 3529.8700
27.4300 3625.8400
27.4400 3751.1175
27.4500 3669.5825
27.4600 3645.9725
27.4700 3637.3625
27.4800 3848.1675
27.4900 3689.2050
27.5000 3667.2125
27.5100 3733.8750
27.5200 3522.5675
27.5300 3601.6150
27.5400 3561.5625
27.5500 3394.3650
27.5600 3564.7600
27.5700 3570.1725
27.5800 3625.7900
27.5900 3687.8925
27.6000 3763.1525
27.6100 3846.4850
27.6200 3563.5575
27.6300 3719.2475
27.6400 3711.6000
27.6500 3544.4275
27.6600 3537.8825
27.6700 3562.6275
27.6800 3882.3225
27.6900 3844.4500
27.7000 3635.8725
27.7100 3621.2075
27.7200 3608.0850
27.7300 3562.1300
27.7400 3499.5075
27.7500 3508.5775
27.7600 3743.8575
27.7700 3665.2125
27.7800 3578.8050
27.7900 3692.8675
27.8000 3581.9000
27.8100 3710.0000
27.8200 3539.5350
27.8300 3353.1050
27.8400 3493.3100
27.8500 3638.3175
27.8600 3515.2725
27.8700 3504.5125
27.8800 3302.2100
27.8900 3397.3225
27.9000 3601.3675
27.9100 3624.7725
27.9200 3641.8925
27.9300 3713.0625
27.9400 3745.9450
27.9500 3712.1675
27.9600 3649.5575
27.9700 3645.9425
27.9800 3586.9525
27.9900 3415.3600
28.0000 3454.9250
28.0100 3697.6675
28.0200 3703.6300
28.0300 3519.4450
28.0400 3290.1800
28.0500 3145.0950
28.0600 2952.8000
28.0700 3341.1575
28.0800 3710.2050
28.0900 3695.1100
28.1000 3654.0650
28.1100 3713.0125
28.1200 3720.7325
28.1300 3792.2725
28.1400 3665.4600
28.1500 3528.4675
28.1600 3437.0025
28.1700 3567.8550
28.1800 3490.6825
28.1900 3487.7925
28.2000 3298.4450
28.2100 3157.7525
28.2200 3360.0650
28.2300 3445.9300
28.2400 3424.8100
28.2500 3416.6675
28.2600 3315.9150
28.2700 3459.6400
28.2800 3529.2600
28.2900 3722.2175
28.3000 3833.7000
28.3100 3698.9075
28.3200 3750.7250
28.3300 3808.5125
28.3400 3778.8975
28.3500 3703.7225
28.3600 3456.7425
28.3700 3408.5100
28.3800 3240.4450
28.3900 3397.3075
28.4000 3730.9750
28.4100 3778.9100
28.4200 3703.7425
28.4300 3582.6575
28.4400 3550.0000
28.4500 3499.6675
28.4600 3458.1675
28.4700 3739.3925
28.4800 3845.9150
28.4900 3610.9575
28.5000 3483.0100
28.5100 3743.4275
28.5200 4047.1850
28.5300 3726.7200
28.5400 3398.7475
28.5500 3610.0450
28.5600 3800.6175
28.5700 3795.6025
28.5800 3934.2475
28.5900 3983.3325
28.6000 3907.8825
28.6100 3732.4400
28.6200 3633.0375
28.6300 3692.1075
28.6400 3792.1025
28.6500 3980.1050
28.6600 3957.9025
28.6700 3719.6250
28.6800 3612.2875
28.6900 3700.5600
28.7000 4009.8625
28.7100 4112.5700
28.7200 4041.2575
28.7300 3991.5300
28.7400 3782.2575
28.7500 3942.8675
28.7600 3916.1375
28.7700 3606.8900
28.7800 3755.4025
28.7900 3958.9775
28.8000 3886.9250
28.8100 3912.8175
28.8200 3857.9575
28.8300 4147.3900
28.8400 3961.0825
28.8500 3628.0050
28.8600 3374.1525
28.8700 3630.6675
28.8800 3645.4175
28.8900 3516.1950
28.9000 3269.8425
28.9100 3413.4825
28.9200 3445.6625
28.9300 3747.2500
28.9400 3699.3275
28.9500 3449.1125
28.9600 3847.8675
28.9700 3799.1300
28.9800 3607.7950
28.9900 3742.4125
29.0000 3611.7075
29.0100 3537.4475
29.0200 3683.9525
29.0300 3833.7425
29.0400 4017.2725
29.0500 3991.3675
29.0600 3929.0175
29.0700 4318.2300
29.0800 4224.1300
29.0900 4162.5475
29.1000 4041.1950
29.1100 3887.0800
29.1200 4038.1900
29.1300 4187.8175
29.1400 4091.2175
29.1500 4388.7000
29.1600 4713.2450
29.1700 4795.8775
29.1800 5088.4825
29.1900 5559.5975
29.2000 5746.0425
29.2100 5804.2900
29.2200 6631.8000
29.2300 7489.3775
29.2400 8347.9200
29.2500 9168.5300
29.2600 9291.4375
29.2700 10382.5225
29.2800 11063.4275
29.2900 12019.1550
29.3000 12801.4425
29.3100 12628.2100
29.3200 12491.5975
29.3300 12633.7450
29.3400 12169.4475
29.3500 11699.2025
29.3600 11086.1600
29.3700 10803.8775
29.3800 10378.1875
29.3900 9310.1750
29.4000 8423.6000
29.4100 7832.3775
29.4200 7274.0025
29.4300 6744.9425
29.4400 6265.8775
29.4500 5673.9500
29.4600 5341.2875
29.4700 4957.6425
29.4800 4674.6375
29.4900 4691.8200
29.5000 4478.6950
29.5100 4274.7575
29.5200 4471.2850
29.5300 4299.5375
29.5400 3690.7175
29.5500 3879.8075
29.5600 3812.1775
29.5700 3762.5200
29.5800 3616.4225
29.5900 3641.7850
29.6000 3929.5725
29.6100 3941.5550
29.6200 3804.0025
29.6300 3666.5250
29.6400 3508.1625
29.6500 3529.2500
29.6600 3550.0000
29.6700 3487.4225
29.6800 3441.6375
29.6900 3771.2175
29.7000 3833.2775
29.7100 3679.0225
29.7200 3821.0225
29.7300 3620.5825
29.7400 3583.3800
29.7500 3587.4900
29.7600 3583.3325
29.7700 3645.8825
29.7800 3666.6675
29.7900 3691.6850
29.8000 3674.9850
29.8100 3666.6675
29.8200 3616.6400
29.8300 3574.9875
29.8400 3641.7025
29.8500 3641.6550
29.8600 3333.2200
29.8700 3683.4825
29.8800 3545.7500
29.8900 3712.5625
29.9000 3524.9450
29.9100 3295.8125
29.9200 3199.9950
29.9300 3370.8450
29.9400 3933.3425
29.9500 3862.5075
29.9600 3595.8475
29.9700 3508.3375
29.9800 3500.0000
29.9900 3549.9900
30.0000 3466.6925
30.0100 3545.8000
30.0200 3695.7950
30.0300 3520.9150
30.0400 3425.0100
30.0500 3654.0525
30.0600 3820.7875
30.0700 3487.7075
30.0800 3516.5750
30.0900 3454.2400
30.1000 3429.1575
30.1100 3420.8425
30.1200 3354.2175
30.1300 3408.2700
30.1400 3445.8225
30.1500 3487.4650
30.1600 3612.3900
30.1700 3412.7425
30.1800 3333.3325
30.1900 3508.1400
30.2000 3641.5800
30.2100 3504.3625
30.2200 3362.6100
30.2300 3383.2700
30.2400 3599.7325
30.2500 3604.2525
30.2600 3495.9575
30.2700 3579.0000
30.2800 3654.1100
30.2900 3654.1850
30.3000 3662.4800
30.3100 3429.5600
30.3200 3387.4375
30.3300 3662.0425
30.3400 3687.6125
30.3500 3803.9150
30.3600 3825.0475
30.3700 3791.7150
30.3800 3870.6600
30.3900 3875.0500
30.4000 3904.0900
30.4100 3766.9825
30.4200 3604.4075
30.4300 3678.9200
30.4400 3803.9700
30.4500 4369.6050
30.4600 4475.1750
30.4700 4400.1200
30.4800 4308.5150
30.4900 4358.1475
30.5000 4508.0200
30.5100 4637.2750
30.5200 4878.6125
30.5300 5074.6700
30.5400 5091.7350
30.5500 5494.7025
30.5600 5546.0775
30.5700 5628.8475
30.5800 5903.4825
30.5900 6494.3350
30.6000 6716.5175
30.6100 7082.2775
30.6200 7810.6275
30.6300 8340.6575
30.6400 8649.3700
30.6500 8978.3275
30.6600 9627.3450
30.6700 10315.0225
30.6800 10794.7925
30.6900 11510.4325
30.7000 12040.5550
30.7100 12112.6300
30.7200 12959.4700
30.7300 13499.1100
30.7400 14305.7200
30.7500 14836.4500
30.7600 14833.7025
30.7700 14762.6400
30.7800 14662.8325
30.7900 14446.5525
30.8000 13536.6300
30.8100 13212.6475
30.8200 12714.4350
30.8300 11765.6625
30.8400 11238.5650
30.8500 10602.2600
30.8600 9906.2950
30.8700 9235.4325
30.8800 8817.7275
30.8900 8048.7825
30.9000 7542.8600
30.9100 6877.5200
30.9200 6446.8850
30.9300 6005.7875
30.9400 5472.6975
30.9500 5096.9175
30.9600 4830.0300
30.9700 5164.8050
30.9800 5362.2050
30.9900 4848.3850
31.0000 4343.2250
31.0100 4196.0150
31.0200 4121.1375
31.0300 4187.0675
31.0400 4291.2925
31.0500 4391.2900
31.0600 4242.5550
31.0700 4270.3850
31.0800 4200.5150
31.0900 3806.0550
31.1000 3621.1625
31.1100 3637.3025
31.1200 3575.4000
31.1300 3562.4325
31.1400 3417.4825
31.1500 3453.6875
31.1600 3570.3500
31.1700 3413.5450
31.1800 3586.1650
31.1900 3629.3800
31.2000 3405.3800
31.2100 3159.3425
31.2200 3249.1300
31.2300 3262.7200
31.2400 3448.8200
31.2500 3516.6675
31.2600 3417.2650
31.2700 3296.3625
31.2800 3080.3075
31.2900 3103.6300
31.3000 3443.9025
31.3100 3599.6900
31.3200 3368.2325
31.3300 3258.4900
31.3400 3200.3175
31.3500 3319.9525
31.3600 3217.6350
31.3700 3191.5050
31.3800 3162.7450
31.3900 3348.6825
31.4000 3578.0875
31.4100 3434.6700
31.4200 3205.2600
31.4300 3261.7375
31.4400 3461.3900
31.4500 3218.7275
31.4600 3141.4950
31.4700 3261.7175
31.4800 3275.1750
31.4900 3254.2550
31.5000 3349.2900
31.5100 3470.2075
31.5200 3462.7700
31.5300 3288.6775
31.5400 3146.4700
31.5500 3129.0750
31.5600 3393.8950
31.5700 3260.0050
31.5800 3034.4550
31.5900 3107.3925
31.6000 3360.8925
31.6100 3420.9275
31.6200 3553.1125
31.6300 3389.1375
31.6400 3155.4275
31.6500 3050.3900
31.6600 3293.7725
31.6700 3346.1300
31.6800 3159.7225
31.6900 3000.7975
31.7000 3065.8625
31.7100 3038.0050
31.7200 3177.8450
31.7300 3344.9150
31.7400 3346.1425
31.7500 3246.5575
31.7600 3191.8750
31.7700 3158.5425
31.7800 2988.8675
31.7900 3057.2775
31.8000 3199.1500
31.8100 3171.3675
31.8200 3125.2150
31.8300 3129.0575
31.8400 3257.2475
31.8500 3126.5300
31.8600 3141.0075
31.8700 3315.3425
31.8800 3242.7775
31.8900 3076.1150
31.9000 3008.5575
31.9100 3235.3575
31.9200 3267.1200
31.9300 3175.6825
31.9400 3112.8425
31.9500 2988.5350
31.9600 2999.5375
31.9700 3066.2025
31.9800 3256.6975
31.9900 3316.6675
32.0000 3192.8475
32.0100 3459.5350
32.0200 3591.4275
32.0300 3327.6350
32.0400 3245.7125
32.0500 3274.7575
32.0600 3122.4125
32.0700 2819.1100
32.0800 3042.7650
32.0900 2989.1025
32.1000 2945.7100
32.1100 2999.5025
32.1200 3140.4150
32.1300 3121.4625
32.1400 3050.5050
32.1500 3020.9600
32.1600 3041.4125
32.1700 3000.5125
32.1800 3156.5325
32.1900 3080.5875
32.2000 3020.9625
32.2100 3177.4700
32.2200 3245.7025
32.2300 3064.4750
32.2400 3309.1950
32.2500 3478.5025
32.2600 3376.3350
32.2700 3222.0400
32.2800 3146.2375
32.2900 3133.3325
32.3000 3269.3400
32.3100 3193.0300
32.3200 3150.0000
32.3300 3261.2625
32.3400 3374.1700
32.3500 3214.5825
32.3600 3125.2775
32.3700 3215.5475
32.3800 3225.2800
32.3900 3204.3075
32.4000 3138.2075
32.4100 3030.1625
32.4200 3173.0000
32.4300 3258.0475
32.4400 2970.1250
32.4500 3051.9950
32.4600 3166.0850
32.4700 3170.9800
32.4800 3302.5550
32.4900 3152.3550
32.5000 3145.0950
32.5100 3290.1825
32.5200 3246.8750
32.5300 3327.8200
32.5400 3206.1175
32.5500 3224.0950
32.5600 3101.8150
32.5700 2938.8675
32.5800 3072.8650
32.5900 3182.7200
32.6000 3138.2675
32.6100 3277.1600
32.6200 3234.5725
32.6300 3249.3775
32.6400 3390.1050
32.6500 3309.9000
32.6600 3390.0925
32.6700 3667.8325
32.6800 3861.0725
32.6900 3850.6375
32.7000 4178.8600
32.7100 4608.4900
32.7200 4901.7525
32.7300 5361.4975
32.7400 5981.1750
32.7500 6433.7550
32.7600 6693.7100
32.7700 7058.4000
32.7800 7561.4000
32.7900 8045.3750
32.8000 8253.0050
32.8100 8591.6725
32.8200 8404.0075
32.8300 7782.0400
32.8400 7291.7050
32.8500 7134.0075
32.8600 6611.1150
32.8700 6186.7350
32.8800 5643.8150
32.8900 5668.2650
32.9000 5610.0525
32.9100 5468.0475
32.9200 5347.0450
32.9300 4737.3300
32.9400 4126.5850
32.9500 3687.5325
32.9600 3681.9300
32.9700 3815.2575
32.9800 3689.7975
32.9900 3448.4925
33.0000 3334.0450
33.0100 3365.9525
33.0200 3457.2575
33.0300 3409.4125
33.0400 3260.1375
33.0500 3401.4525
33.0600 3183.3450
33.0700 2923.2025
33.0800 3051.4250
33.0900 3128.9825
33.1000 3071.7550
33.1100 3111.5775
33.1200 3305.7400
33.1300 3329.7250
33.1400 3082.7100
33.1500 3086.1900
33.1600 3264.4125
33.1700 3181.2400
33.1800 3034.8450
33.1900 3196.9650
33.2000 3168.1875
33.2100 3145.6425
33.2200 3100.7650
33.2300 3132.5650
33.2400 3199.2300
33.2500 3093.6000
33.2600 3136.1425
33.2700 3215.8875
33.2800 3257.9425
33.2900 3119.0150
33.3000 2992.8450
33.3100 3212.7275
33.3200 3152.3725
33.3300 3112.3025
33.3400 3104.3650
33.3500 3001.5950
33.3600 2917.4675
33.3700 3121.3875
33.3800 3113.9100
33.3900 3021.8425
33.4000 2963.1075
33.4100 2999.1875
33.4200 3176.5175
33.4300 3134.9700
33.4400 3161.4750
33.4500 3048.0950
33.4600 2926.2375
33.4700 2961.4650
33.4800 2811.2400
33.4900 2737.7075
33.5000 2708.7500
33.5100 3081.0075
33.5200 2897.1275
33.5300 2672.7300
33.5400 2756.2200
33.5500 2824.5750
33.5600 2759.6075
33.5700 2708.7600
33.5800 2712.2850
33.5900 2728.9525
33.6000 2807.0425
33.6100 2894.7550
33.6200 2855.2475
33.6300 2722.7850
33.6400 2658.7675
33.6500 2809.6625
33.6600 2756.1350
33.6700 2593.8600
33.6800 2795.6000
33.6900 2969.2875
33.7000 2717.5900
33.7100 2653.5000
33.7200 2789.4400
33.7300 2735.1200
33.7400 2896.4175
33.7500 2782.5325
33.7600 2863.9650
33.7700 2990.3125
33.7800 2623.9100
33.7900 2446.5150
33.8000 2249.2475
33.8100 2379.6825
33.8200 2732.2350
33.8300 2747.4400
33.8400 2532.6175
33.8500 2589.3600
33.8600 2608.7950
33.8700 2379.1775
33.8800 2484.0100
33.8900 2746.2675
33.9000 2816.6675
33.9100 2914.7900
33.9200 2618.8500
33.9300 2512.2650
33.9400 2492.1400
33.9500 2777.6425
33.9600 2785.2350
33.9700 2504.7675
33.9800 2514.7550
33.9900 2550.0000
34.0000 2648.0775
34.0100 2523.9650
34.0200 2687.3175
34.0300 2901.5025
34.0400 2925.4850
34.0500 2830.8700
34.0600 2812.2550
34.0700 2767.6450
34.0800 2823.5275
34.0900 2776.4750
34.1000 2627.4675
34.1100 2681.3550
34.1200 2802.4300
34.1300 2955.8475
34.1400 2938.7450
34.1500 2732.9150
34.1600 2776.9125
34.1700 2828.9150
34.1800 3017.0575
34.1900 2850.6300
34.2000 2803.4075
34.2100 2951.3750
34.2200 2938.7725
34.2300 2659.5225
34.2400 2529.9325
34.2500 2455.4475
34.2600 2470.0625
34.2700 2764.9075
34.2800 2976.8425
34.2900 2771.8450
34.3000 2622.1300
34.3100 2697.9175
34.3200 2880.2025
34.3300 2921.0950
34.3400 2831.0025
34.3500 2775.5250
34.3600 2607.5900
34.3700 2733.5400
34.3800 2812.2350
34.3900 2731.0250
34.4000 2724.4675
34.4100 2672.1675
34.4200 2478.7425
34.4300 2612.3800
34.4400 2817.8800
34.4500 2793.2825
34.4600 2632.1350
34.4700 2607.7925
34.4800 2677.8100
34.4900 2528.8050
34.5000 2588.9425
34.5100 2682.2400
34.5200 2675.5475
34.5300 2629.9900
34.5400 2616.6675
34.5500 2628.8900
34.5600 2572.2150
34.5700 2513.3300
34.5800 2573.3325
34.5900 2600.0000
34.6000 2807.7575
34.6100 2516.7250
34.6200 2481.0900
34.6300 2699.9525
34.6400 2595.6100
34.6500 2643.2925
34.6600 2634.4650
34.6700 2470.0700
34.6800 2563.2550
34.6900 2616.6675
34.7000 2714.3825
34.7100 2615.6500
34.7200 2432.3225
34.7300 2664.2200
34.7400 2754.4550
34.7500 2798.8450
34.7600 2792.2450
34.7700 2551.3475
34.7800 2478.8750
34.7900 2471.1250
34.8000 2661.9925
34.8100 2635.6775
34.8200 2722.0650
34.8300 2925.3425
34.8400 2629.3850
34.8500 2780.7025
34.8600 2724.6825
34.8700 2678.8700
34.8800 2841.9650
34.8900 2753.5775
34.9000 2712.2000
34.9100 2655.6650
34.9200 2547.9350
34.9300 2626.4600
34.9400 2532.4825
34.9500 2593.1150
34.9600 2718.7125
34.9700 2664.6250
34.9800 2499.1800
34.9900 2486.5850
35.0000 2573.1675
35.0100 2685.3575
35.0200 2765.4400
35.0300 2771.1400
35.0400 2705.7075
35.0500 2707.7150
35.0600 2753.2375
35.0700 2864.1850
35.0800 2790.2975
35.0900 2798.7550
35.1000 2865.4175
35.1100 2773.6500
35.1200 2696.7750
35.1300 2768.6350
35.1400 2812.1850
35.1500 2743.5600
35.1600 2789.7700
35.1700 2731.3850
35.1800 2663.4525
35.1900 2662.1825
35.2000 2898.1075
35.2100 2788.4475
35.2200 2789.7450
35.2300 2707.0550
35.2400 2703.2025
35.2500 2753.2000
35.2600 2864.0825
35.2700 2912.1775
35.2800 2867.9650
35.2900 2728.2500
35.3000 2963.3425
35.3100 3151.8825
35.3200 3146.8150
35.3300 3340.2625
35.3400 3477.5250
35.3500 3317.4375
35.3600 3201.3200
35.3700 3256.3500
35.3800 3538.8800
35.3900 3499.4825
35.4000 3669.0150
35.4100 3530.9975
35.4200 3827.1500
35.4300 4015.3275
35.4400 4410.4400
35.4500 4416.1950
35.4600 4403.1575
35.4700 4659.9200
35.4800 5041.8875
35.4900 5636.4525
35.5000 5840.9875
35.5100 6287.7575
35.5200 6960.6900
35.5300 7757.9300
35.5400 8457.4900
35.5500 9265.5075
35.5600 9791.7575
35.5700 10410.5450
35.5800 11535.9450
35.5900 12223.6575
35.6000 12459.3850
35.6100 12597.2250
35.6200 12171.5425
35.6300 12558.9775
35.6400 12244.1725
35.6500 11843.4450
35.6600 11560.1225
35.6700 11665.5675
35.6800 11077.3300
35.6900 10262.4000
35.7000 9697.7425
35.7100 9348.0350
35.7200 8683.6850
35.7300 7980.8750
35.7400 7119.9325
35.7500 6453.7925
35.7600 6069.2900
35.7700 5558.3650
35.7800 5084.3275
35.7900 4638.8700
35.8000 4188.8900
35.8100 3920.9975
35.8200 3769.5575
35.8300 3684.7825
35.8400 3678.8050
35.8500 3744.0150
35.8600 3754.5300
35.8700 3349.5450
35.8800 3260.6725
35.8900 3174.1300
35.9000 3048.4025
35.9100 3125.8575
35.9200 3287.9825
35.9300 3284.8100
35.9400 3351.5775
35.9500 3468.2400
35.9600 3439.3575
35.9700 3331.7700
35.9800 3348.5100
35.9900 3536.4375
36.0000 3478.7425
36.0100 3336.3325
36.0200 3251.5025
36.0300 3196.9625
36.0400 3243.9475
36.0500 3181.8100
36.0600 3053.0275
36.0700 2919.7000
36.0800 2883.3325
36.0900 3137.8425
36.1000 2736.4625
36.1100 2828.7150
36.1200 2909.0975
36.1300 2657.6675
36.1400 2699.9425
36.1500 2689.4250
36.1600 2521.2925
36.1700 2490.8950
36.1800 2451.5475
36.1900 2409.1075
36.2000 2460.5575
36.2100 2422.7775
36.2200 2412.1100
36.2300 2501.4325
36.2400 2509.1150
36.2500 2681.6225
36.2600 2483.6375
36.2700 2250.1600
36.2800 2272.6350
36.2900 2300.0000
36.3000 2360.5225
36.3100 2552.7875
36.3200 2544.0475
36.3300 2431.9500
36.3400 2315.2875
36.3500 2428.5450
36.3600 2555.9350
36.3700 2389.7400
36.3800 2316.6675
36.3900 2074.7050
36.4000 2055.9175
36.4100 2180.1075
36.4200 2180.3800
36.4300 2299.7125
36.4400 2350.0000
36.4500 2229.0625
36.4600 2243.7975
36.4700 2399.6825
36.4800 2365.3600
36.4900 2393.7875
36.5000 2344.1250
36.5100 2328.7550
36.5200 2490.4850
36.5300 2259.8900
36.5400 2089.5650
36.5500 2018.3200
36.5600 2217.5425
36.5700 2324.1700
36.5800 2176.2375
36.5900 2140.8350
36.6000 2331.2425
36.6100 2206.6850
36.6200 2278.3100
36.6300 2333.3325
36.6400 2369.5725
36.6500 2479.9675
36.6600 2383.8025
36.6700 2236.7125
36.6800 2284.5400
36.6900 2159.6750
36.7000 2244.9075
36.7100 2444.8975
36.7200 2524.1475
36.7300 2412.6000
36.7400 2282.1575
36.7500 2322.4300
36.7600 2217.2175
36.7700 2299.4400
36.7800 2301.7225
36.7900 2174.7125
36.8000 2157.4700
36.8100 2190.8025
36.8200 2393.0675
36.8300 2430.4700
36.8400 2235.6875
36.8500 2094.2800
36.8600 2126.9850
36.8700 2282.6925
36.8800 2200.6475
36.8900 2186.1850
36.9000 2067.3325
36.9100 2137.2675
36.9200 2291.8675
36.9300 2224.8075
36.9400 2340.0850
36.9500 2134.7450
36.9600 2009.2200
36.9700 2108.5000
36.9800 2282.6025
36.9900 2345.3875
37.0000 2157.1475
37.0100 2179.7550
37.0200 2385.3925
37.0300 2377.6925
37.0400 2386.1500
37.0500 2219.2575
37.0600 2041.5600
37.0700 2192.7700
37.0800 2182.3350
37.0900 2017.4875
37.1000 2063.0325
37.1100 2184.3150
37.1200 2180.5325
37.1300 2022.1450
37.1400 2123.2225
37.1500 2195.3750
37.1600 2127.7525
37.1700 2075.9200
37.1800 2175.0250
37.1900 2144.4325
37.2000 2116.6675
37.2100 2104.6300
37.2200 2160.1850
37.2300 2219.4425
37.2400 2245.3675
37.2500 2141.6900
37.2600 2003.7300
37.2700 2002.7650
37.2800 2004.6350
37.2900 1987.9675
37.3000 2103.6400
37.3100 2270.3000
37.3200 2148.2575
37.3300 2119.4175
37.3400 2217.5275
37.3500 2250.0000
37.3600 2165.8175
37.3700 2217.5100
37.3800 2225.9500
37.3900 2228.6900
37.4000 2245.3575
37.4100 2225.9550
37.4200 2240.7100
37.4300 2274.0425
37.4400 2235.2525
37.4500 2012.3400
37.4600 1981.4075
37.4700 2072.1075
37.4800 1991.8475
37.4900 2106.2100
37.5000 2178.6825
37.5100 2255.4200
37.5200 2223.2650
37.5300 2224.0250
37.5400 2185.2850
37.5500 2214.7125
37.5600 2509.5800
37.5700 2340.4375
37.5800 2161.2775
37.5900 2169.3575
37.6000 2267.3875
37.6100 2444.0825
37.6200 2632.0675
37.6300 2647.3175
37.6400 2465.2700
37.6500 2460.0200
37.6600 2603.3625
37.6700 2589.9900
37.6800 2554.6650
37.6900 2501.9975
37.7000 2555.3325
37.7100 2571.3350
37.7200 2818.6325
37.7300 2928.6650
37.7400 2861.3525
37.7500 2869.3225
37.7600 2919.3200
37.7700 3041.2825
37.7800 3011.3725
37.7900 3115.2550
37.8000 3502.4450
37.8100 3609.3500
37.8200 3480.0950
37.8300 3493.2825
37.8400 3336.8325
37.8500 3302.6300
37.8600 3220.7675
37.8700 3243.2675
37.8800 3158.7950
37.8900 3152.6225
37.9000 3154.6825
37.9100 3102.0650
37.9200 2939.5425
37.9300 2871.3525
37.9400 2770.8175
37.9500 2685.4125
37.9600 2642.7075
37.9700 2477.6100
37.9800 2464.5775
37.9900 2495.3100
38.0000 2380.2375
38.0100 2273.4550
38.0200 2273.9500
38.0300 2175.5675
38.0400 2324.9025
38.0500 2316.1925
38.0600 2211.5050
38.0700 2171.3625
38.0800 2190.6075
38.0900 2283.7850
38.1000 2232.8875
38.1100 2188.0325
38.1200 1991.8650
38.1300 1880.7700
38.1400 1878.6325
38.1500 1907.2625
38.1600 2024.3375
38.1700 2162.3675
38.1800 2104.3050
38.1900 1982.9375
38.2000 2021.7625
38.2100 2193.5150
38.2200 2142.3725
38.2300 2016.2950
38.2400 1875.7200
38.2500 1905.0700
38.2600 2112.6650
38.2700 2267.0150
38.2800 2204.3700
38.2900 2047.1350
38.3000 2047.8100
38.3100 1887.3950
38.3200 1995.9275
38.3300 1983.0175
38.3400 1950.0000
38.3500 2009.7400
38.3600 2057.2275
38.3700 2042.7725
38.3800 1985.5500
38.3900 2074.1725
38.4000 2056.9450
38.4100 1949.7300
38.4200 1880.8400
38.4300 2045.7925
38.4400 2140.5475
38.4500 2114.1800
38.4600 1992.5475
38.4700 1926.1225
38.4800 1988.2925
38.4900 2040.5400
38.5000 1966.4475
38.5100 1837.8525
38.5200 1967.0800
38.5300 1997.5325
38.5400 2054.9300
38.5500 2154.9250
38.5600 2123.6775
38.5700 2088.0700
38.5800 1952.1100
38.5900 1911.9275
38.6000 2155.2225
38.6100 2059.1700
38.6200 1828.2950
38.6300 1862.0700
38.6400 1852.3025
38.6500 2024.1125
38.6600 2147.6900
38.6700 2262.0425
38.6800 2145.0250
38.6900 2095.2525
38.7000 2111.9200
38.7100 2057.0725
38.7200 1985.6625
38.7300 1954.7500
38.7400 1890.4200
38.7500 1807.0900
38.7600 1938.2225
38.7700 1904.6900
38.7800 1997.7075
38.7900 2002.3525
38.8000 1911.8675
38.8100 1942.8850
38.8200 1847.5725
38.8300 1776.1825
38.8400 1873.8375
38.8500 1940.4800
38.8600 1950.0000
38.8700 1842.8525
38.8800 1930.9500
38.8900 1959.5250
38.9000 1961.9025
38.9100 1978.5675
38.9200 2114.2450
38.9300 2416.5725
38.9400 2266.7800
38.9500 2154.7675
38.9600 2078.6125
38.9700 2050.0000
38.9800 2252.2325
38.9900 2357.1225
39.0000 2128.7800
39.0100 2116.5875
39.0200 2268.9275
39.0300 2126.3975
39.0400 2026.2175
39.0500 2064.2275
39.0600 1988.2200
39.0700 2009.4425
39.0800 2223.5350
39.0900 2383.2075
39.1000 2155.1775
39.1100 1990.5750
39.1200 2049.8550
39.1300 2166.5175
39.1400 2104.9400
39.1500 2007.2575
39.1600 2007.0950
39.1700 2016.6675
39.1800 2064.1825
39.1900 2059.5775
39.2000 2133.1400
39.2100 1893.5075
39.2200 1830.8350
39.2300 1956.8725
39.2400 2118.7400
39.2500 2214.1575
39.2600 2078.9950
39.2700 1992.9250
39.2800 2185.1300
39.2900 2195.4500
39.3000 2214.1425
39.3100 2185.8625
39.3200 2249.7350
39.3300 2259.6000
39.3400 2083.8875
39.3500 1981.0725
39.3600 1919.2125
39.3700 2006.7650
39.3800 2144.8950
39.3900 2029.1425
39.4000 1966.6675
39.4100 1931.0900
39.4200 1952.2425
39.4300 1954.8100
39.4400 1878.8600
39.4500 1873.7125
39.4600 1835.9150
39.4700 1911.4975
39.4800 1855.1750
39.4900 2006.3025
39.5000 1964.8200
39.5100 1881.1150
39.5200 2008.8625
39.5300 2031.1200
39.5400 2087.7525
39.5500 2057.4325
39.5600 2068.8725
39.5700 1964.8825
39.5800 1881.1325
39.5900 1937.7275
39.6000 1966.6675
39.6100 2227.1850
39.6200 2025.4725
39.6300 1675.0425
39.6400 1820.1150
39.6500 2058.7250
39.6600 1962.7825
39.6700 1911.8375
39.6800 2046.8575
39.6900 2135.5050
39.7000 2114.5000
39.7100 1981.6725
39.7200 1862.3425
39.7300 1833.3325
39.7400 1856.9925
39.7500 2020.4475
39.7600 2201.6175
39.7700 2072.5875
39.7800 1893.5600
39.7900 1909.1275
39.8000 2098.8800
39.8100 2095.7225
39.8200 2244.0125
39.8300 2352.1325
39.8400 2343.0250
39.8500 2203.3100
39.8600 2315.4725
39.8700 2123.3250
39.8800 2312.1100
39.8900 2374.2500
39.9000 2326.3675
39.9100 2233.9625
39.9200 2353.5825
39.9300 2522.9850
39.9400 2354.0450
39.9500 2148.5525
39.9600 2100.0000
39.9700 2159.0475
39.9800 2136.0975
39.9900 2034.0125
40.0000 2165.2975
40.0100 2020.8250
40.0200 1945.1375
40.0300 2044.4325
40.0400 2154.1525
40.0500 2147.9250
40.0600 1897.3050
40.0700 2012.4100
40.0800 1864.0075
40.0900 2026.2400
40.1000 2251.3125
40.1100 2052.2650
40.1200 1832.0400
40.1300 1783.3325
40.1400 1972.0400
40.1500 1896.6875
40.1600 1750.7875
40.1700 1740.2500
40.1800 1915.0675
40.1900 2065.8600
40.2000 2005.6900
40.2100 1825.2125
40.2200 1672.3725
40.2300 1739.4075
40.2400 1971.8950
40.2500 1932.1600
40.2600 1871.5500
40.2700 1866.6675
40.2800 1843.1050
40.2900 1915.7975
40.3000 2008.8975
40.3100 2045.1125
40.3200 2108.8875
40.3300 1980.2350
40.3400 1869.5625
40.3500 1826.4500
40.3600 1957.9550
40.3700 2040.2125
40.3800 1814.5575
40.3900 1728.4375
40.4000 1921.6575
40.4100 2153.0025
40.4200 2110.7500
40.4300 2043.1325
40.4400 1868.6025
40.4500 1717.6400
40.4600 1753.9225
40.4700 1877.4425
40.4800 1987.2425
40.4900 1993.1425
40.5000 2089.1825
40.5100 1968.6925
40.5200 1829.4450
40.5300 1741.2100
40.5400 1810.7250
40.5500 1932.2950
40.5600 1837.3575
40.5700 1877.3675
40.5800 1928.4200
40.5900 2027.3525
40.6000 2090.1700
40.6100 2041.2475
40.6200 2004.9175
40.6300 2000.0000
40.6400 1870.7750
40.6500 1863.6550
40.6600 1942.0625
40.6700 1907.9425
40.6800 1895.0775
40.6900 1641.6525
40.7000 1850.3700
40.7100 1971.5925
40.7200 1954.9275
40.7300 1914.7825
40.7400 1946.9525
40.7500 1907.9800
40.7600 1883.3325
40.7700 1965.4825
40.7800 1870.9200
40.7900 1769.7325
40.8000 1796.9300
40.8100 1898.7875
40.8200 2027.1800
40.8300 2019.7475
40.8400 1953.0850
40.8500 2015.4275
40.8600 2073.4550
40.8700 2165.4150
40.8800 2035.8500
40.8900 1931.4950
40.9000 1834.6050
40.9100 1905.5000
40.9200 1832.7875
40.9300 1970.8575
40.9400 2038.2800
40.9500 2068.4875
40.9600 1977.8775
40.9700 2038.7800
40.9800 2036.4725
40.9900 1887.8075
41.0000 1938.7550
41.0100 2018.4700
41.0200 2021.6225
41.0300 2051.7975
41.0400 2172.0525
41.0500 2041.0375
41.0600 1931.5450
41.0700 1776.1875
41.0800 1939.0750
41.0900 1974.8100
41.1000 2020.2225
41.1100 1991.4850
41.1200 1861.3500
41.1300 1734.7600
41.1400 1910.5975
41.1500 1777.7225
41.1600 1905.5925
41.1700 2152.0600
41.1800 1982.7475
41.1900 1742.9925
41.2000 1905.5200
41.2100 2105.2375
41.2200 2220.1525
41.2300 2098.0175
41.2400 1998.2625
41.2500 1971.6450
41.2600 2071.8600
41.2700 2034.8575
41.2800 1976.6275
41.2900 1873.1850
41.3000 1868.3850
41.3100 1813.2350
41.3200 1853.4275
41.3300 2023.5075
41.3400 1943.1700
41.3500 1824.9375
41.3600 2103.6350
41.3700 2058.1750
41.3800 2041.7150
41.3900 1996.6150
41.4000 1943.3175
41.4100 1956.6800
41.4200 2071.7175
41.4300 2011.6250
41.4400 1954.9975
41.4500 2020.0150
41.4600 2061.6675
41.4700 2230.0100
41.4800 2206.6700
41.4900 2015.0175
41.5000 2054.9775
41.5100 2041.6825
41.5200 2051.6525
41.5300 2078.3275
41.5400 2048.3525
41.5500 1975.0375
41.5600 2054.9250
41.5700 2134.9725
41.5800 2161.6575
41.5900 2259.9100
41.6000 2311.6550
41.6100 2456.5050
41.6200 2388.4925
41.6300 2391.5900
41.6400 2614.7200
41.6500 2723.2975
41.6600 2768.2775
41.6700 3190.9850
41.6800 3529.7125
41.6900 3436.9675
41.7000 3424.8875
41.7100 3531.5025
41.7200 3776.2250
41.7300 3913.2300
41.7400 3735.4525
41.7500 3510.3300
41.7600 3450.0000
41.7700 3368.5400
41.7800 3542.7825
41.7900 3586.7925
41.8000 3310.7175
41.8100 3409.3950
41.8200 3418.5750
41.8300 3383.3325
41.8400 3243.7750
41.8500 3090.3025
41.8600 3015.1175
41.8700 2872.1050
41.8800 2770.1625
41.8900 2773.2500
41.9000 2701.9675
41.9100 2678.2900
41.9200 2532.2500
41.9300 2524.7700
41.9400 2410.5650
41.9500 2291.9075
41.9600 2347.9900
41.9700 2534.3475
41.9800 2588.3850
41.9900 2432.3450
42.0000 2250.5325
42.0100 2350.9625
42.0200 2381.8325
42.0300 2482.7700
42.0400 2463.6775
42.0500 2398.5075
42.0600 2302.0825
42.0700 2266.6675
42.0800 2347.9025
42.0900 2371.7300
42.1000 2227.4300
42.1100 2073.8500
42.1200 2033.3325
42.1300 2021.7325
42.1400 2063.0625
42.1500 2176.1175
42.1600 2077.5050
42.1700 1935.4950
42.1800 1911.5950
42.1900 2055.7900
42.2000 2116.6675
42.2100 2035.5250
42.2200 1976.8200
42.2300 2082.5625
42.2400 2052.2150
42.2500 1900.7925
42.2600 1815.2400
42.2700 1939.0225
42.2800 2011.5850
42.2900 2028.2500
42.3000 2102.8250
42.3100 1936.4550
42.3200 1792.1000
42.3300 1882.4575
42.3400 1968.0675
42.3500 1913.8725
42.3600 1964.3650
42.3700 1930.5525
42.3800 1969.4425
42.3900 1872.7025
42.4000 1828.2375
42.4100 1775.4800
42.4200 1969.8200
42.4300 1823.7325
42.4400 1658.8300
42.4500 1772.1275
42.4600 1925.8550
42.4700 2047.6150
42.4800 1956.1400
42.4900 1749.6950
42.5000 1810.5025
42.5100 2016.9450
42.5200 1933.0700
42.5300 1820.4350
42.5400 1823.1125
42.5500 1983.5550
42.5600 1980.6725
42.5700 1799.8050
42.5800 1883.5125
42.5900 2077.0625
42.6000 1983.1825
42.6100 2043.7075
42.6200 1938.3275
42.6300 1982.1350
42.6400 1940.9675
42.6500 1911.5450
42.6600 1778.1425
42.6700 1785.9225
42.6800 1839.7500
42.6900 1873.0800
42.7000 1906.4125
42.7100 1847.4375
42.7200 1816.6675
42.7300 1839.7400
42.7400 1792.3250
42.7500 1755.1325
42.7600 1899.9275
42.7700 1932.0725
42.7800 1905.1350
42.7900 2038.3550
42.8000 2076.9425
42.8100 1962.9200
42.8200 1835.9825
42.8300 1719.3250
42.8400 1844.6700
42.8500 1847.5300
42.8600 2104.7150
42.8700 1945.3125
42.8800 1839.7050
42.8900 2034.2975
42.9000 1943.9050
42.9100 1797.5675
42.9200 1973.9425
42.9300 1974.5525
42.9400 1783.6625
42.9500 1728.1775
42.9600 1848.4425
42.9700 1969.0575
42.9800 2034.5250
42.9900 1934.9250
43.0000 2067.4375
43.0100 2126.9900
43.0200 2116.6675
43.0300 1921.1125
43.0400 1798.8275
43.0500 1944.3450
43.0600 1855.6700
43.0700 1702.8425
43.0800 1701.1600
43.0900 1797.1425
43.1000 1879.3150
43.1100 1911.4950
43.1200 1859.2000
43.1300 1948.2525
43.1400 2022.9825
43.1500 1883.9675
43.1600 1770.7125
43.1700 1795.9500
43.1800 1862.6125
43.1900 1986.7000
43.2000 1987.3975
43.2100 1737.0050
43.2200 1610.3700
43.2300 1714.8075
43.2400 1915.9025
43.2500 1971.8550
43.2600 1909.2800
43.2700 1986.6200
43.2800 1953.0075
43.2900 1801.9275
43.3000 1979.4575
43.3100 2106.2775
43.3200 1875.7825
43.3300 1709.3200
43.3400 1786.5500
43.3500 1867.7350
43.3600 1929.1975
43.3700 2053.1850
43.3800 2031.2175
43.3900 2011.4625
43.4000 2016.6675
43.4100 1936.4425
43.4200 1762.4875
43.4300 1711.4575
43.4400 1751.0375
43.4500 1640.6525
43.4600 1686.4250
43.4700 1802.0550
43.4800 1970.7625
43.4900 1838.6600
43.5000 1830.1500
43.5100 1866.6675
43.5200 1992.5925
43.5300 1992.7675
43.5400 1772.0925
43.5500 1946.5550
43.5600 2043.7800
43.5700 1941.7975
43.5800 1922.8825
43.5900 1944.7725
43.6000 1835.6125
43.6100 1760.4575
43.6200 1818.6175
43.6300 1872.8700
43.6400 1894.7675
43.6500 1854.2675
43.6600 1810.4700
43.6700 1800.0000
43.6800 1777.1400
43.6900 1732.3825
43.7000 1922.3550
43.7100 2039.5175
43.7200 1901.4775
43.7300 1799.0625
43.7400 1943.2475
43.7500 2073.7725
43.7600 1985.8000
43.7700 1876.2375
43.7800 1987.0125
43.7900 2232.6650
43.8000 2191.0975
43.8100 2076.2625
43.8200 2084.2400
43.8300 2008.7050
43.8400 2115.0075
43.8500 2137.6950
43.8600 2048.2150
43.8700 2028.0750
43.8800 2056.1450
43.8900 2214.9300
43.9000 2078.0675
43.9100 1960.5275
43.9200 1904.3950
43.9300 2054.3350
43.9400 2315.7175
43.9500 2092.2600
43.9600 1836.0325
43.9700 1885.8925
43.9800 2058.6700
43.9900 2082.4875
44.0000 1998.3150
44.0100 1966.6675
44.0200 1989.4450
44.0300 1965.8350
44.0400 1938.6125
44.0500 1808.0875
44.0600 1898.0025
44.0700 1932.5150
44.0800 1962.1950
44.0900 1983.3325
44.1000 1903.6725
44.1100 1730.1200
44.1200 1905.5975
44.1300 2050.7950
44.1400 2089.4175
44.1500 1986.2600
44.1600 2001.5700
44.1700 2147.0500
44.1800 2097.6650
44.1900 1970.4150
44.2000 1865.1250
44.2100 1787.8650
44.2200 1823.4950
44.2300 2009.1025
44.2400 2151.5125
44.2500 2103.8000
44.2600 2362.0475
44.2700 2579.5175
44.2800 2650.7425
44.2900 2746.1675
44.3000 2817.4025
44.3100 3060.4275
44.3200 3121.2525
44.3300 3100.0000
44.3400 3156.7550
44.3500 3285.4825
44.3600 3344.6825
44.3700 3372.6950
44.3800 3167.7550
44.3900 3089.3575
44.4000 3156.7200
44.4100 3069.9075
44.4200 2982.6425
44.4300 2943.9875
44.4400 2876.6375
44.4500 2736.6225
44.4600 2717.3425
44.4700 2608.6450
44.4800 2493.3300
44.4900 2398.6700
44.5000 2366.6675
44.5100 2536.6225
44.5200 2299.4500
44.5300 2183.9850
44.5400 2301.9400
44.5500 2157.4675
44.5600 2066.6675
44.5700 2010.0525
44.5800 2085.2300
44.5900 2144.6550
44.6000 2161.3200
44.6100 2076.1225
44.6200 1908.8475
44.6300 2042.3650
44.6400 1997.5600
44.6500 1797.5750
44.6600 1823.8275
44.6700 2036.3275
44.6800 2082.7375
44.6900 1806.5775
44.7000 1875.5500
44.7100 1944.0550
44.7200 1922.0300
44.7300 1882.7575
44.7400 1923.1775
44.7500 1904.7975
44.7600 1962.4300
44.7700 1887.0175
44.7800 1799.4425
44.7900 1941.4725
44.8000 2061.8450
44.8100 1959.1075
44.8200 1764.4975
44.8300 1756.4525
44.8400 1851.0700
44.8500 1804.3150
44.8600 1800.5275
44.8700 1782.8100
44.8800 1687.6750
44.8900 1785.3975
44.9000 1872.5650
44.9100 1996.1400
44.9200 1948.4850
44.9300 1821.0525
44.9400 1749.5025
44.9500 1846.0900
44.9600 1798.5300
44.9700 1693.6350
44.9800 1711.7550
44.9900 1834.7675
45.0000 1872.0650
45.0100 1923.0075
45.0200 1893.6675
45.0300 1799.0750
45.0400 1822.9875
45.0500 1883.7875
45.0600 1798.6450
45.0700 1671.1775
45.0800 1577.0375
45.0900 1741.3825
45.1000 1754.5375
45.1100 1739.1775
45.1200 1727.4925
45.1300 1660.4025
45.1400 1802.1050
45.1500 1995.8350
45.1600 2038.7500
45.1700 1932.1050
45.1800 1860.8400
45.1900 1928.7150
45.2000 1865.4725
45.2100 1906.6050
45.2200 1994.9650
45.2300 1926.7475
45.2400 1759.7100
45.2500 1531.4400
45.2600 1506.1800
45.2700 1645.6800
45.2800 1688.7675
45.2900 1761.9575
45.3000 1800.0000
45.3100 1811.2300
45.3200 1782.9825
45.3300 1890.1625
45.3400 1950.0000
45.3500 1848.9800
45.3600 1766.3300
45.3700 1918.3250
45.3800 1820.4725
45.3900 1823.0875
45.4000 1821.7950
45.4100 1811.2175
45.4200 1760.5900
45.4300 1856.6875
45.4400 1871.8150
45.4500 1805.1550
45.4600 1962.6925
45.4700 2083.6250
45.4800 2077.5850
45.4900 1954.6050
45.5000 2045.6625
45.5100 2150.2775
45.5200 2233.8800
45.5300 2121.0550
45.5400 1994.0025
45.5500 2045.0550
45.5600 2072.1375
45.5700 2201.0125
45.5800 2322.6375
45.5900 2238.0700
45.6000 2138.5675
45.6100 2362.8525
45.6200 2259.5550
45.6300 2284.2525
45.6400 2551.3525
45.6500 2482.2250
45.6600 2299.3475
45.6700 2250.0000
45.6800 2328.2675
45.6900 2545.5400
45.7000 2868.0775
45.7100 2849.2100
45.7200 2794.5100
45.7300 2654.7325
45.7400 2750.9275
45.7500 2688.1025
45.7600 2504.9625
45.7700 2718.0550
45.7800 2660.1500
45.7900 2566.6675
45.8000 2544.3375
45.8100 2455.1875
45.8200 2450.1525
45.8300 2533.6325
45.8400 2354.6350
45.8500 2205.3675
45.8600 2250.2750
45.8700 2339.1125
45.8800 2455.9000
45.8900 2488.8475
45.9000 2427.5750
45.9100 2333.1000
45.9200 2311.1500
45.9300 2216.3400
45.9400 2088.6425
45.9500 2083.4350
45.9600 1988.5650
45.9700 1977.9025
45.9800 2077.9850
45.9900 2127.8050
46.0000 1955.1250
46.0100 1978.0325
46.0200 2044.4675
46.0300 1916.3925
46.0400 1861.1325
46.0500 1888.9300
46.0600 1922.2600
46.0700 1666.2500
46.0800 1677.9850
46.0900 1816.7550
46.1000 1861.1250
46.1100 1833.2975
46.1200 1772.1800
46.1300 1894.5650
46.1400 1888.8350
46.1500 1850.0000
46.1600 1838.8850
46.1700 1711.0700
46.1800 1661.1125
46.1900 1666.6675
46.2000 1766.6625
46.2100 1905.5425
46.2200 1805.5975
46.2300 1744.4400
46.2400 1727.7900
46.2500 1683.3550
46.2600 1722.1800
46.2700 1727.7975
46.2800 1916.4600
46.2900 1950.0775
46.3000 1694.7275
46.3100 1683.1925
46.3200 1644.5800
46.3300 1622.1850
46.3400 1799.7025
46.3500 1750.2525
46.3600 1616.8025
46.3700 1727.4675
46.3800 1788.9150
46.3900 1805.5025
46.4000 1716.9200
46.4100 1544.7700
46.4200 1583.0550
46.4300 1832.7525
46.4400 1656.3975
46.4500 1538.8175
46.4600 1771.4925
46.4700 1672.9425
46.4800 1555.5950
46.4900 1605.3525
46.5000 1721.8850
46.5100 1678.1250
46.5200 1732.9300
46.5300 1816.5275
46.5400 1789.0800
46.5500 1722.4175
46.5600 1722.1200
46.5700 1678.0375
46.5800 1605.7700
46.5900 1782.3475
46.6000 1971.7725
46.6100 1939.2925
46.6200 1833.6875
46.6300 1976.8125
46.6400 1867.7800
46.6500 1667.2350
46.6600 1583.5275
46.6700 1721.2975
46.6800 1777.9125
46.6900 1766.6675
46.7000 1634.1775
46.7100 1743.2975
46.7200 1855.4100
46.7300 1866.6675
46.7400 1789.4200
46.7500 1750.0000
46.7600 1738.9675
46.7700 1733.3325
46.7800 1689.2150
46.7900 1743.8625
46.8000 1728.2000
46.8100 1567.7000
46.8200 1566.1425
46.8300 1743.2875
46.8400 1816.6675
46.8500 1728.5125
46.8600 1650.2800
46.8700 1633.3325
46.8800 1809.5725
46.8900 1877.9725
46.9000 1690.4725
46.9100 1721.1175
46.9200 1838.3800
46.9300 1789.6125
46.9400 1672.9550
46.9500 1688.3575
46.9600 1903.7250
46.9700 1944.9900
46.9800 1861.6625
46.9900 1767.3375
47.0000 1810.3175
47.0100 1806.0150
47.0200 1860.2975
47.0300 1845.0325
47.0400 1783.6900
47.0500 1645.7725
47.0600 1550.3675
47.0700 1588.2700
47.0800 1649.6250
47.0900 1941.2825
47.1000 1973.5025
47.1100 1675.0700
47.1200 1506.0800
47.1300 1505.2900
47.1400 1703.2800
47.1500 1832.9275
47.1600 1828.0525
47.1700 1794.7200
47.1800 1849.1625
47.1900 1795.5725
47.2000 1640.3150
47.2100 1758.8050
47.2200 1839.0350
47.2300 1690.8000
47.2400 1594.7425
47.2500 1649.1000
47.2600 1562.7775
47.2700 1598.6225
47.2800 1573.3025
47.2900 1620.9750
47.3000 1754.2975
47.3100 1821.9050
47.3200 1669.0725
47.3300 1659.9775
47.3400 1732.8425
47.3500 1618.6450
47.3600 1659.4475
47.3700 1661.9500
47.3800 1698.9850
47.3900 1645.8100
47.4000 1621.8775
47.4100 1688.0200
47.4200 1574.5000
47.4300 1521.8700
47.4400 1544.2650
47.4500 1615.5875
47.4600 1660.9300
47.4700 1612.0250
47.4800 1703.5300
47.4900 1788.5175
47.5000 1657.9900
47.5100 1495.9550
47.5200 1559.2100
47.5300 1627.5850
47.5400 1655.1700
47.5500 1655.7500
47.5600 1617.2550
47.5700 1665.4800
47.5800 1721.8250
47.5900 1776.9750
47.6000 1690.9100
47.6100 1633.3325
47.6200 1556.9925
47.6300 1592.9975
47.6400 1666.0425
47.6500 1770.5450
47.6600 1849.3650
47.6700 1812.1750
47.6800 1728.8500
47.6900 1732.6850
47.7000 1760.8925
47.7100 1625.0675
47.7200 1539.1100
47.7300 1664.0025
47.7400 1711.5575
47.7500 1580.2525
47.7600 1473.1275
47.7700 1526.1800
47.7800 1686.3625
47.7900 1760.8800
47.8000 1734.0325
47.8100 1662.2825
47.8200 1687.7100
47.8300 1803.6575
47.8400 1676.0425
47.8500 1702.9125
47.8600 1907.9675
47.8700 1928.9950
47.8800 1910.8650
47.8900 1949.2600
47.9000 1814.5850
47.9100 1668.1650
47.9200 1622.4725
47.9300 1573.2325
47.9400 1680.2825
47.9500 1641.4475
47.9600 1561.6250
47.9700 1604.2600
47.9800 1687.5875
47.9900 1684.1200
48.0000 1612.4300
48.0100 1637.5625
48.0200 1634.1325
48.0300 1519.0800
48.0400 1542.5550
48.0500 1615.8525
48.0600 1633.3325
48.0700 1633.3325
48.0800 1579.1575
48.0900 1571.6675
48.1000 1550.8375
48.1100 1609.1450
48.1200 1487.5675
48.1300 1519.1000
48.1400 1637.4625
48.1500 1580.0750
48.1600 1609.0900
48.1700 1909.7000
48.1800 1844.4325
48.1900 1657.6100
48.2000 1540.9525
48.2100 1575.7025
48.2200 1681.5450
48.2300 1565.3075
48.2400 1559.0025
48.2500 1643.2325
48.2600 1688.2800
48.2700 1732.4150
48.2800 1609.5550
48.2900 1490.1250
48.3000 1499.0675
48.3100 1646.2500
48.3200 1641.0875
48.3300 1707.9550
48.3400 1788.2550
48.3500 1659.7000
48.3600 1497.0075
48.3700 1471.5775
48.3800 1558.8450
48.3900 1610.7850
48.4000 1659.8025
48.4100 1769.5950
48.4200 1719.6375
48.4300 1645.1075
48.4400 1601.0000
48.4500 1572.5575
48.4600 1523.5675
48.4700 1532.3200
48.4800 1646.9425
48.4900 1678.4600
48.5000 1537.4500
48.5100 1488.2000
48.5200 1456.9400
48.5300 1497.9125
48.5400 1468.7650
48.5500 1540.9325
48.5600 1578.4825
48.5700 1684.9900
48.5800 1620.9400
48.5900 1528.4925
48.6000 1538.1700
48.6100 1550.0000
48.6200 1625.2400
48.6300 1623.6800
48.6400 1664.4700
48.6500 1517.3600
48.6600 1448.8925
48.6700 1552.5900
48.6800 1546.3075
48.6900 1656.2475
48.7000 1744.0675
48.7100 1728.5325
48.7200 1748.8625
48.7300 1798.8575
48.7400 1805.9375
48.7500 1789.2725
48.7600 1836.9600
48.7700 1759.4300
48.7800 1689.2775
48.7900 1597.5700
48.8000 1614.3125
48.8100 1596.4150
48.8200 1588.0975
48.8300 1621.4275
48.8400 1686.8925
48.8500 1780.9300
48.8600 1613.2025
48.8700 1489.2925
48.8800 1601.0925
48.8900 1634.5550
48.9000 1638.0700
48.9100 1650.0000
48.9200 1617.9050
48.9300 1557.2125
48.9400 1404.9900
48.9500 1472.3500
48.9600 1774.5300
48.9700 1910.6900
48.9800 1756.3400
48.9900 1484.9900
49.0000 1458.1300
49.0100 1489.3175
49.0200 1654.2400
49.0300 1728.6400
49.0400 1577.8500
49.0500 1606.7650
49.0600 1666.6675
49.0700 1527.9150
49.0800 1524.7000
49.0900 1609.3450
49.1000 1676.0050
49.1100 1742.6650
49.1200 1851.9825
49.1300 1995.9650
49.1400 1986.0325
49.1500 1971.3200
49.1600 1812.8100
49.1700 1706.0100
49.1800 1785.2350
49.1900 1705.5025
49.2000 1558.7775
49.2100 1591.2100
49.2200 1707.8650
49.2300 1760.6450
49.2400 1787.9550
49.2500 1927.7050
49.2600 2031.9225
49.2700 2018.0850
49.2800 2010.6375
49.2900 2016.6675
49.3000 1867.7975
49.3100 1921.5450
49.3200 2127.5600
49.3300 2157.4875
49.3400 2122.7075
49.3500 2063.5425
49.3600 2012.0875
49.3700 1861.9250
49.3800 1868.2900
49.3900 1959.1375
49.4000 1866.5575
49.4100 1662.0150
49.4200 1774.3575
49.4300 1946.9975
49.4400 1919.6800
49.4500 1872.7250
49.4600 1898.4825
49.4700 1980.2875
49.4800 1868.2425
49.4900 1751.5325
49.5000 1892.3075
49.5100 1909.1575
49.5200 1697.1525
49.5300 1621.1850
49.5400 1654.5150
49.5500 1613.7200
49.5600 1477.4575
49.5700 1586.0375
49.5800 1662.1650
49.5900 1798.1500
49.6000 1809.2700
49.6100 1682.0375
49.6200 1686.2175
49.6300 1674.3675
49.6400 1565.4150
49.6500 1495.5250
49.6600 1483.3325
49.6700 1525.6050
49.6800 1645.0925
49.6900 1668.3075
49.7000 1565.5025
49.7100 1537.7875
49.7200 1592.2350
49.7300 1627.2225
49.7400 1759.9925
49.7500 2002.1850
49.7600 2078.8975
49.7700 1971.7200
49.7800 1800.6425
49.7900 1648.9675
49.8000 1589.4550
49.8100 1509.5375
49.8200 1424.5050
49.8300 1484.3075
49.8400 1817.8225
49.8500 1846.3800
49.8600 1671.8700
49.8700 1690.3850
49.8800 1817.5675
49.8900 1761.3925
49.9000 1731.5775
49.9100 1613.1925
49.9200 1512.2900
49.9300 1647.2800
49.9400 1796.4425
49.9500 1801.7850
49.9600 1678.1900
49.9700 1637.6925
49.9800 1650.0000
49.9900 1639.4900
50.0000 1769.9250
50.0100 1881.5150
50.0200 1637.4200
50.0300 1493.8350
50.0400 1510.5000
50.0500 1569.1550
50.0600 1568.5125
50.0700 1644.4450
50.0800 1658.0325
50.0900 1738.2325
50.1000 1684.6300
50.1100 1511.8050
50.1200 1533.8750
50.1300 1740.5700
50.1400 1780.9300
50.1500 1729.0425
50.1600 1810.9575
50.1700 1845.7175
50.1800 1697.1850
50.1900 1700.4350
50.2000 1676.7150
50.2100 1528.6600
50.2200 1435.2700
50.2300 1395.7400
50.2400 1414.7175
50.2500 1569.3075
50.2600 1493.1350
50.2700 1379.0875
50.2800 1502.5650
50.2900 1447.4600
50.3000 1512.9650
50.3100 1516.4150
50.3200 1456.2200
50.3300 1502.2200
50.3400 1658.6400
50.3500 1743.7725
50.3600 1697.8075
50.3700 1677.1025
50.3800 1818.9800
50.3900 1900.0000
50.4000 1785.2650
50.4100 1654.0950
50.4200 1543.6800
50.4300 1604.2475
50.4400 1843.8525
50.4500 1887.4750
50.4600 1631.2050
50.4700 1677.0850
50.4800 1949.9700
50.4900 1758.4400
50.5000 1718.6750
50.5100 1904.0900
50.5200 1852.1900
50.5300 1752.1175
50.5400 1712.5275
50.5500 1845.6150
50.5600 2006.1275
50.5700 1904.4400
50.5800 1816.6675
50.5900 1837.4525
50.6000 1933.1300
50.6100 2066.4450
50.6200 2075.1175
50.6300 2018.8450
50.6400 2010.3825
50.6500 2047.8100
50.6600 2066.6675
50.6700 1973.2725
50.6800 1937.4175
50.6900 1939.6275
50.7000 2047.4150
50.7100 2147.7750
50.7200 2156.3000
50.7300 2160.3650
50.7400 2208.1175
50.7500 2243.6950
50.7600 2363.9475
50.7700 2464.4050
50.7800 2535.1075
50.7900 2659.8425
50.8000 2685.6150
50.8100 2666.6675
50.8200 2832.2150
50.8300 2922.9875
50.8400 3051.1225
50.8500 3247.0800
50.8600 3327.0050
50.8700 3250.6400
50.8800 3262.0075
50.8900 3413.6575
50.9000 3700.2700
50.9100 4019.2425
50.9200 4246.9225
50.9300 4265.0450
50.9400 4470.7425
50.9500 4771.4675
50.9600 4938.8925
50.9700 4921.4375
50.9800 5089.6100
50.9900 5371.3425
51.0000 5580.0725
51.0100 5650.0000
51.0200 5258.3900
51.0300 5233.0375
51.0400 5376.9675
51.0500 5331.8375
51.0600 5197.0275
51.0700 4999.4975
51.0800 4896.0800
51.0900 4914.2050
51.1000 4717.2700
51.1100 4264.4475
51.1200 4107.8050
51.1300 4184.7450
51.1400 4422.2725
51.1500 4323.8800
51.1600 4060.0200
51.1700 3705.9350
51.1800 3461.4300
51.1900 3570.7125
51.2000 3646.1325
51.2100 3489.6175
51.2200 3369.2100
51.2300 3185.8200
51.2400 2755.0425
51.2500 2467.9450
51.2600 2539.7250
51.2700 2432.1175
51.2800 2337.1675
51.2900 2196.2750
51.3000 2212.7075
51.3100 2191.1375
51.3200 2123.0925
51.3300 2116.6675
51.3400 1993.8150
51.3500 2059.9625
51.3600 2098.8325
51.3700 1902.9675
51.3800 1881.8325
51.3900 2004.9200
51.4000 1937.5300
51.4100 1733.7750
51.4200 1711.3225
51.4300 1852.1800
51.4400 1957.5300
51.4500 1911.8375
51.4600 1927.9350
51.4700 1833.9450
51.4800 1647.9275
51.4900 1756.8175
51.5000 1876.8700
51.5100 1801.7275
51.5200 1800.9925
51.5300 1782.3525
51.5400 1841.7450
51.5500 1920.3825
51.5600 1780.4900
51.5700 1785.2075
51.5800 1972.2225
51.5900 2019.4525
51.6000 1918.5550
51.6100 1825.9525
51.6200 1861.0575
51.6300 1940.6950
51.6400 1946.3225
51.6500 1933.3325
51.6600 1974.0025
51.6700 1908.5150
51.6800 1809.3475
51.6900 1783.3325
51.7000 1732.5425
51.7100 1700.0000
51.7200 1679.6925
51.7300 1656.5150
51.7400 1751.4925
51.7500 1989.1675
51.7600 2059.4200
51.7700 2013.0475
51.7800 1837.7550
51.7900 1733.3325
51.8000 1733.3325
51.8100 1784.0000
51.8200 1735.6175
51.8300 1673.2050
51.8400 1616.0325
51.8500 1573.2100
51.8600 1698.2525
51.8700 1682.1350
51.8800 1555.9625
51.8900 1506.5525
51.9000 1500.0000
51.9100 1459.5575
51.9200 1473.7675
51.9300 1540.4250
51.9400 1596.9775
51.9500 1717.6800
51.9600 1722.7400
51.9700 1653.0425
51.9800 1754.4675
51.9900 1813.1500
52.0000 1668.8325
52.0100 1542.9825
52.0200 1698.2000
52.0300 1897.3300
52.0400 1889.5175
52.0500 1658.5150
52.0600 1452.7275
52.0700 1480.5875
52.0800 1593.7600
52.0900 1512.5075
52.1000 1513.8650
52.1100 1596.8600
52.1200 1666.9750
52.1300 1669.8225
52.1400 1700.2850
52.1500 1652.8950
52.1600 1559.7900
52.1700 1583.5825
52.1800 1516.1900
52.1900 1510.2700
52.2000 1590.1725
52.2100 1656.8275
52.2200 1492.6100
52.2300 1507.1650
52.2400 1620.0675
52.2500 1613.2725
52.2600 1640.1150
52.2700 1726.8225
52.2800 1826.8100
52.2900 1766.4525
52.3000 1549.7150
52.3100 1630.2975
52.3200 1940.2675
52.3300 1926.5025
52.3400 1743.2500
52.3500 1723.3600
52.3600 1750.0000
52.3700 1649.9800
52.3800 1683.3300
52.3900 1630.0325
52.4000 1569.9900
52.4100 1723.2250
52.4200 1716.7675
52.4300 1630.0250
52.4400 1616.6675
52.4500 1626.6500
52.4600 1583.4325
52.4700 1569.9550
52.4800 1603.2850
52.4900 1656.5575
52.5000 1623.5125
52.5100 1583.3325
52.5200 1623.1950
52.5300 1659.9625
52.5400 1706.5075
52.5500 1763.2075
52.5600 1693.7325
52.5700 1623.3800
52.5800 1656.4700
52.5900 1743.0225
52.6000 1833.0625
52.6100 1836.8375
52.6200 1836.5475
52.6300 1700.9275
52.6400 1590.0650
52.6500 1702.5300
52.6600 1892.5700
52.6700 1936.8825
52.6800 1757.8575
52.6900 1650.0000
52.7000 1749.2050
52.7100 1876.1750
52.7200 1877.0050
52.7300 1780.6075
52.7400 1822.5275
52.7500 1903.1500
52.7600 2005.8150
52.7700 1987.4425
52.7800 1864.0300
52.7900 1767.1775
52.8000 1842.1825
52.8100 1788.0600
52.8200 1709.8900
52.8300 1647.4525
52.8400 1639.5400
52.8500 1666.6675
52.8600 1745.7075
52.8700 1780.2450
52.8800 1746.9175
52.8900 1713.5875
52.9000 1749.3500
52.9100 1704.3950
52.9200 1590.8125
52.9300 1619.0350
52.9400 1568.0725
52.9500 1628.1400
52.9600 1765.9375
52.9700 1770.4450
52.9800 1769.6975
52.9900 1704.5600
53.0000 1610.6250
53.0100 1603.0150
53.0200 1665.8600
53.0300 1601.6400
53.0400 1533.3325
53.0500 1641.4725
53.0600 1726.4950
53.0700 1733.3325
53.0800 1664.5725
53.0900 1577.3850
53.1000 1608.9075
53.1100 1600.9250
53.1200 1468.5425
53.1300 1468.6700
53.1400 1506.8600
53.1500 1637.2650
53.1600 1664.7200
53.1700 1655.8650
53.1800 1673.5375
53.1900 1617.6975
53.2000 1642.0800
53.2100 1683.3325
53.2200 1516.9725
53.2300 1458.7000
53.2400 1519.5625
53.2500 1533.3325
53.2600 1640.8625
53.2700 1638.4850
53.2800 1514.9450
53.2900 1476.4350
53.3000 1473.5700
53.3100 1476.4275
53.3200 1532.1300
53.3300 1547.1525
53.3400 1533.3325
53.3500 1533.3325
53.3600 1660.0625
53.3700 1769.4925
53.3800 1724.8750
53.3900 1780.7350
53.4000 1733.1500
53.4100 1542.9175
53.4200 1534.7900
53.4300 1505.4975
53.4400 1479.1800
53.4500 1422.2100
53.4600 1454.1575
53.4700 1574.9775
53.4800 1529.2250
53.4900 1641.4975
53.5000 1786.0875
53.5100 1673.8050
53.5200 1583.3325
53.5300 1612.4400
53.5400 1672.1300
53.5500 1593.3400
53.5600 1555.4400
53.5700 1505.8075
53.5800 1537.1925
53.5900 1590.3150
53.6000 1738.2525
53.6100 1733.8450
53.6200 1620.9700
53.6300 1512.9325
53.6400 1517.7000
53.6500 1498.9875
53.6600 1363.0075
53.6700 1425.6175
53.6800 1574.6275
53.6900 1529.7500
53.7000 1553.5575
53.7100 1568.4075
53.7200 1465.7925
53.7300 1522.7725
53.7400 1609.6425
53.7500 1491.3425
53.7600 1477.1000
53.7700 1610.4100
53.7800 1676.2975
53.7900 1635.1875
53.8000 1590.3750
53.8100 1727.6825
53.8200 1765.9900
53.8300 1774.3725
53.8400 1758.9775
53.8500 1832.0100
53.8600 1801.3575
53.8700 1649.4225
53.8800 1667.2225
53.8900 1726.2675
53.9000 1704.5400
53.9100 1702.5225
53.9200 1687.8925
53.9300 1791.3225
53.9400 1787.4725
53.9500 1755.0000
53.9600 1812.0750
53.9700 1756.7150
53.9800 1700.0000
53.9900 1719.1425
54.0000 1666.3525
54.0100 1683.6275
54.0200 1781.1475
54.0300 1912.2650
54.0400 1887.7650
54.0500 1721.1275
54.0600 1774.1625
54.0700 1780.7325
54.0800 1688.0300
54.0900 1552.1600
54.1000 1552.5200
54.1100 1502.2300
54.1200 1569.2000
54.1300 1769.1075
54.1400 1699.9475
54.1500 1571.4275
54.1600 1616.6500
54.1700 1685.7050
54.1800 1633.3900
54.1900 1602.3575
54.2000 1616.6675
54.2100 1597.6525
54.2200 1564.3250
54.2300 1740.0150
54.2400 1759.8625
54.2500 1742.6250
54.2600 1648.1325
54.2700 1666.1750
54.2800 1814.0950
54.2900 1840.5175
54.3000 1681.6575
54.3100 1509.8075
54.3200 1476.1400
54.3300 1445.4500
54.3400 1378.7950
54.3500 1454.1100
54.3600 1552.2575
54.3700 1670.7100
54.3800 1712.1775
54.3900 1711.6900
54.4000 1657.7375
54.4100 1533.8750
54.4200 1521.1075
54.4300 1597.2025
54.4400 1614.4600
54.4500 1722.6450
54.4600 1694.0625
54.4700 1534.0050
54.4800 1464.4825
54.4900 1563.0625
54.5000 1668.8375
54.5100 1683.3325
54.5200 1617.4450
54.5300 1529.0275
54.5400 1443.5625
54.5500 1381.1925
54.5600 1451.2675
54.5700 1554.2550
54.5800 1592.7275
54.5900 1637.5625
54.6000 1629.1150
54.6100 1628.1550
54.6200 1603.0925
54.6300 1613.5600
54.6400 1696.8775
54.6500 1555.2625
54.6600 1519.7250
54.6700 1674.9275
54.6800 1536.7150
54.6900 1402.0525
54.7000 1500.8750
54.7100 1538.6075
54.7200 1582.1175
54.7300 1680.0675
54.7400 1604.5400
54.7500 1469.9625
54.7600 1536.0450
54.7700 1523.3225
54.7800 1496.6550
54.7900 1598.6300
54.8000 1547.4275
54.8100 1392.0950
54.8200 1361.2875
54.8300 1364.7025
54.8400 1461.7450
54.8500 1550.0000
54.8600 1624.4450
54.8700 1711.2400
54.8800 1547.3500
54.8900 1511.5525
54.9000 1609.2925
54.9100 1551.6400
54.9200 1565.0050
54.9300 1607.3825
54.9400 1479.3625
54.9500 1429.7150
54.9600 1448.1200
54.9700 1488.9550
54.9800 1496.2650
54.9900 1475.9300
55.0000 1501.8550
55.0100 1525.9225
55.0200 1561.0950
55.0300 1620.3350
55.0400 1603.7625
55.0500 1538.9350
55.0600 1544.3900
55.0700 1640.5650
55.0800 1589.1900
55.0900 1610.7700
55.1000 1663.0900
55.1100 1411.9500
55.1200 1362.4275
55.1300 1448.2325
55.1400 1553.1200
55.1500 1668.4225
55.1600 1572.8400
55.1700 1409.6975
55.1800 1432.8100
55.1900 1536.7900
55.2000 1631.0275
55.2100 1729.2900
55.2200 1739.1025
55.2300 1634.0075
55.2400 1612.5725
55.2500 1585.7550
55.2600 1423.2400
55.2700 1415.8725
55.2800 1391.6575
55.2900 1454.1300
55.3000 1694.9200
55.3100 1653.4800
55.3200 1560.7950
55.3300 1711.4450
55.3400 1834.9625
55.3500 1685.4075
55.3600 1641.4075
55.3700 1680.1175
55.3800 1604.3300
55.3900 1530.1450
55.4000 1545.6350
55.4100 1565.0850
55.4200 1531.7600
55.4300 1580.4850
55.4400 1587.7675
55.4500 1540.8900
55.4600 1587.9725
55.4700 1587.8175
55.4800 1550.0000
55.4900 1550.0000
55.5000 1631.8350
55.5100 1636.3750
55.5200 1619.6775
55.5300 1622.7525
55.5400 1581.8425
55.5500 1648.3475
55.5600 1707.5950
55.5700 1609.3150
55.5800 1533.3325
55.5900 1614.8875
55.6000 1638.0425
55.6100 1482.2900
55.6200 1473.8450
55.6300 1649.5250
55.6400 1805.6875
55.6500 1740.0975
55.6600 1570.0725
55.6700 1534.7350
55.6800 1631.2725
55.6900 1591.6800
55.7000 1599.2550
55.7100 1656.2750
55.7200 1552.1875
55.7300 1564.4475
55.7400 1669.3700
55.7500 1654.9725
55.7600 1697.6850
55.7700 1847.6525
55.7800 1799.7325
55.7900 1762.9400
55.8000 1906.5450
55.8100 1938.4125
55.8200 1908.9800
55.8300 1844.8500
55.8400 1846.1475
55.8500 1819.2700
55.8600 1776.9000
55.8700 1907.5525
55.8800 2035.8375
55.8900 1995.0225
55.9000 1969.1400
55.9100 2053.6900
55.9200 2117.8900
55.9300 2106.5100
55.9400 2029.7075
55.9500 2036.9375
55.9600 1994.0300
55.9700 2077.3475
55.9800 2270.2050
55.9900 2325.5850
56.0000 2360.0800
56.0100 2267.4750
56.0200 2166.6675
56.0300 2042.0000
56.0400 1942.2350
56.0500 1994.4875
56.0600 2015.5450
56.0700 1964.4400
56.0800 1897.7875
56.0900 1911.0800
56.1000 1834.5700
56.1100 1795.4625
56.1200 1965.3325
56.1300 1977.9850
56.1400 1775.8975
56.1500 1764.1350
56.1600 1708.2875
56.1700 1636.4525
56.1800 1833.7775
56.1900 1851.6700
56.2000 1635.0525
56.2100 1612.8800
56.2200 1754.0100
56.2300 1966.7950
56.2400 1808.7000
56.2500 1576.4700
56.2600 1538.2625
56.2700 1474.5175
56.2800 1475.4800
56.2900 1509.7600
56.3000 1674.2100
56.3100 1835.2050
56.3200 1752.3025
56.3300 1597.2400
56.3400 1532.4200
56.3500 1490.3100
56.3600 1396.4100
56.3700 1482.5650
56.3800 1555.2450
56.3900 1605.2500
56.4000 1594.7950
56.4100 1578.8700
56.4200 1527.3675
56.4300 1530.4900
56.4400 1694.5950
56.4500 1671.2675
56.4600 1600.0000
56.4700 1600.0000
56.4800 1573.7900
56.4900 1550.0000
56.5000 1523.8125
56.5100 1421.4750
56.5200 1402.3275
56.5300 1502.3050
56.5400 1654.5625
56.5500 1750.0000
56.5600 1636.8250
56.5700 1637.7575
56.5800 1628.9550
56.5900 1576.8050
56.6000 1468.9300
56.6100 1394.1400
56.6200 1493.4125
56.6300 1472.5825
56.6400 1416.6675
56.6500 1512.0475
56.6600 1626.0025
56.6700 1641.3375
56.6800 1624.6750
56.6900 1504.1475
56.7000 1408.6525
56.7100 1433.9625
56.7200 1510.5050
56.7300 1704.9025
56.7400 1729.7025
56.7500 1572.9100
56.7600 1490.7825
56.7700 1449.4175
56.7800 1485.0550
56.7900 1516.1000
56.8000 1448.3275
56.8100 1382.7825
56.8200 1435.5025
56.8300 1482.8000
56.8400 1466.6675
56.8500 1526.8150
56.8600 1557.5675
56.8700 1567.6725
56.8800 1591.4200
56.8900 1557.6025
56.9000 1533.3325
56.9100 1499.0575
56.9200 1475.2325
56.9300 1534.6975
56.9400 1549.1075
56.9500 1525.2200
56.9600 1490.5900
56.9700 1518.3575
56.9800 1515.0075
56.9900 1313.4125
57.0000 1345.4550
57.0100 1525.5850
57.0200 1430.6550
57.0300 1282.5850
57.0400 1479.9500
57.0500 1521.2350
57.0600 1358.5075
57.0700 1383.6750
57.0800 1365.9975
57.0900 1375.8150
57.1000 1476.1150
57.1100 1507.8675
57.1200 1500.3025
57.1300 1533.6275
57.1400 1592.3825
57.1500 1480.8325
57.1600 1443.4200
57.1700 1676.9625
57.1800 1816.9200
57.1900 1748.7725
57.2000 1599.0525
57.2100 1457.3025
57.2200 1501.5450
57.2300 1675.7450
57.2400 1716.4625
57.2500 1649.4100
57.2600 1633.7100
57.2700 1666.6675
57.2800 1649.8275
57.2900 1666.9925
57.3000 1582.2475
57.3100 1559.1425
57.3200 1591.1800
57.3300 1524.9350
57.3400 1441.1150
57.3500 1458.9600
57.3600 1700.9525
57.3700 1715.8850
57.3800 1482.7975
57.3900 1425.2025
57.4000 1541.9950
57.4100 1524.6450
57.4200 1433.3325
57.4300 1358.1175
57.4400 1350.1575
57.4500 1500.1575
57.4600 1683.4725
57.4700 1749.9700
57.4800 1816.7050
57.4900 1800.0125
57.5000 1699.9900
57.5100 1641.7500
57.5200 1566.6675
57.5300 1591.6150
57.5400 1608.3550
57.5500 1649.8450
57.5600 1700.0000
57.5700 1666.8050
57.5800 1550.3850
57.5900 1566.1525
57.6000 1741.2450
57.6100 1717.2800
57.6200 1567.0000
57.6300 1533.2150
57.6400 1475.5750
57.6500 1466.1225
57.6600 1648.9900
57.6700 1750.1525
57.6800 1650.8075
57.6900 1566.6675
57.7000 1574.9100
57.7100 1566.8525
57.7200 1574.7075
57.7300 1624.6950
57.7400 1625.3175
57.7500 1600.0000
57.7600 1583.5625
57.7700 1550.2375
57.7800 1607.2275
57.7900 1683.3325
57.8000 1568.5075
57.8100 1466.3950
57.8200 1557.0725
57.8300 1625.1450
57.8400 1624.8525
57.8500 1715.1400
57.8600 1710.0600
57.8700 1526.7750
57.8800 1490.5075
57.8900 1590.8175
57.9000 1633.3325
57.9100 1527.3200
57.9200 1547.0750
57.9300 1552.9925
57.9400 1384.0975
57.9500 1382.5500
57.9600 1408.5325
57.9700 1408.1300
57.9800 1449.1650
57.9900 1507.6950
58.0000 1476.5200
58.0100 1497.7850
58.0200 1607.6550
58.0300 1446.9575
58.0400 1233.8025
58.0500 1362.3700
58.0600 1532.8475
58.0700 1574.2575
58.0800 1616.1625
58.0900 1722.1850
58.1000 1776.3025
58.1100 1620.3725
58.1200 1508.0650
58.1300 1556.9675
58.1400 1519.4425
58.1500 1417.2300
58.1600 1528.7500
58.1700 1658.6250
58.1800 1585.6950
58.1900 1556.8350
58.2000 1624.0875
58.2100 1650.0000
58.2200 1569.7925
58.2300 1475.3175
58.2400 1554.8000
58.2500 1601.9550
58.2600 1541.9975
58.2700 1549.3300
58.2800 1510.7050
58.2900 1450.0000
58.3000 1505.9000
58.3100 1558.6850
58.3200 1605.8400
58.3300 1642.7500
58.3400 1552.9200
58.3500 1467.4050
58.3600 1394.2850
58.3700 1452.6600
58.3800 1527.6800
58.3900 1411.0425
58.4000 1492.9525
58.4100 1610.3125
58.4200 1574.6000
58.4300 1607.1200
58.4400 1593.7125
58.4500 1597.5175
58.4600 1626.2550
58.4700 1560.4450
58.4800 1603.6375
58.4900 1620.9800
58.5000 1572.8225
58.5100 1624.5600
58.5200 1617.5550
58.5300 1647.3050
58.5400 1826.0775
58.5500 1793.4075
58.5600 1623.6125
58.5700 1689.3325
58.5800 1717.6100
58.5900 1566.4200
58.6000 1455.9325
58.6100 1531.3950
58.6200 1621.5775
58.6300 1644.1350
58.6400 1529.4825
58.6500 1387.3525
58.6600 1457.5425
58.6700 1616.6675
58.6800 1507.2225
58.6900 1422.3975
58.7000 1544.7525
58.7100 1602.1175
58.7200 1574.4675
58.7300 1645.6950
58.7400 1693.2950
58.7500 1542.0875
58.7600 1470.0350
58.7700 1542.2225
58.7800 1494.4700
58.7900 1535.4500
58.8000 1540.1700
58.8100 1448.8525
58.8200 1544.2125
58.8300 1524.8300
58.8400 1446.4750
58.8500 1561.9300
58.8600 1702.9625
58.8700 1814.2625
58.8800 1687.7200
58.8900 1569.5075
58.9000 1688.5925
58.9100 1741.0475
58.9200 1711.4525
58.9300 1759.1275
58.9400 1912.8700
58.9500 1835.8350
58.9600 1714.1000
58.9700 1788.4350
58.9800 1902.4750
58.9900 1929.5875
59.0000 1751.5675
59.0100 1655.0100
59.0200 1822.6275
59.0300 1867.0900
59.0400 1727.0350
59.0500 1761.2050
59.0600 1863.9175
59.0700 1793.0175
59.0800 1681.9400
59.0900 1722.8975
59.1000 1879.6750
59.1100 1850.3725
59.1200 1610.4775
59.1300 1659.4750
59.1400 1750.0000
59.1500 1696.7650
59.1600 1587.7300
59.1700 1571.3125
59.1800 1609.0750
59.1900 1622.7600
59.2000 1695.4925
59.2100 1734.8450
59.2200 1762.1050
59.2300 1771.2550
59.2400 1693.9750
59.2500 1651.5475
59.2600 1535.1200
59.2700 1529.9200
59.2800 1711.9400
59.2900 1661.0925
59.3000 1540.8700
59.3100 1550.0000
59.3200 1504.8375
59.3300 1525.2275
59.3400 1684.3300
59.3500 1781.6925
59.3600 1784.9825
59.3700 1699.1275
59.3800 1609.1675
59.3900 1555.0300
59.4000 1522.4725
59.4100 1677.2600
59.4200 1773.4825
59.4300 1647.6625
59.4400 1620.6925
59.4500 1599.4600
59.4600 1494.2775
59.4700 1533.7900
59.4800 1594.3050
59.4900 1618.8100
59.5000 1668.4450
59.5100 1650.0000
59.5200 1702.0450
59.5300 1714.6525
59.5400 1612.8700
59.5500 1566.6675
59.5600 1507.3350
59.5700 1522.2750
59.5800 1588.8900
59.5900 1607.3600
59.6000 1736.9900
59.6100 1687.2200
59.6200 1529.7225
59.6300 1483.3325
59.6400 1498.0925
59.6500 1487.1675
59.6600 1413.1500
59.6700 1455.0525
59.6800 1610.8325
59.6900 1659.3100
59.7000 1672.0550
59.7100 1685.3050
59.7200 1666.6675
59.7300 1593.2900
59.7400 1558.6625
59.7500 1618.6775
59.7600 1658.5900
59.7700 1704.0575
59.7800 1695.9250
59.7900 1777.1900
59.8000 1716.4550
59.8100 1566.6675
59.8200 1559.3700
59.8300 1615.6175
59.8400 1772.8625
59.8500 1670.0625
59.8600 1409.3900
59.8700 1392.7275
59.8800 1441.4750
59.8900 1567.5075
59.9000 1575.2675
59.9100 1507.2525
59.9200 1574.6575
59.9300 1592.0475
59.9400 1531.1450
59.9500 1586.1750
59.9600 1568.2625
59.9700 1454.4325
59.9800 1496.0950
59.9900 1636.0800
60.0000 1596.7975
60.0100 1512.1600
60.0200 1665.2325
60.0300 1766.2850
60.0400 1620.8825
60.0500 1595.7325
60.0600 1664.0850
60.0700 1695.6300
60.0800 1792.8250
60.0900 1740.3175
60.1000 1754.9775
60.1100 1864.3200
60.1200 1861.8675
60.1300 1847.6350
60.1400 1802.3575
60.1500 1752.3700
60.1600 1792.8650
60.1700 1847.5175
60.1800 1976.0950
60.1900 2054.7000
60.2000 1976.5725
60.2100 1826.2200
60.2200 1873.5300
60.2300 2077.8575
60.2400 2164.8175
60.2500 2035.8125
60.2600 2037.9325
60.2700 2165.8475
60.2800 2285.8400
60.2900 2273.7425
60.3000 2325.7550
60.3100 2340.9400
60.3200 2361.0000
60.3300 2565.4500
60.3400 2671.7950
60.3500 2478.3100
60.3600 2400.4600
60.3700 2541.1100
60.3800 2588.8175
60.3900 2726.3050
60.4000 2667.5075
60.4100 2719.3075
60.4200 2939.4400
60.4300 3100.7700
60.4400 3216.6675
60.4500 3258.6625
60.4600 3386.6100
60.4700 3441.3950
60.4800 3313.4850
60.4900 3293.4500
60.5000 3483.7050
60.5100 3648.7950
60.5200 3772.3950
60.5300 3884.8050
60.5400 3912.4650
60.5500 3737.3475
60.5600 3609.7500
60.5700 3820.8000
60.5800 3994.4175
60.5900 3922.4100
60.6000 3870.5875
60.6100 3850.5075
60.6200 3692.7700
60.6300 3654.8100
60.6400 3636.5425
60.6500 3886.1925
60.6600 3721.7775
60.6700 3509.7725
60.6800 3472.4400
60.6900 3460.8750
60.7000 3424.3150
60.7100 3302.9150
60.7200 3262.7200
60.7300 3171.5375
60.7400 3042.1650
60.7500 2955.9075
60.7600 2868.7025
60.7700 2868.4725
60.7800 2884.5575
60.7900 2759.8300
60.8000 2647.5075
60.8100 2527.3125
60.8200 2539.3725
60.8300 2500.0000
60.8400 2377.3525
60.8500 2186.3825
60.8600 2166.6675
60.8700 2207.4650
60.8800 2178.3350
60.8900 2090.7400
60.9000 2027.8650
60.9100 1816.0975
60.9200 1820.8725
60.9300 1879.6875
60.9400 1883.8300
60.9500 1980.6625
60.9600 2036.4875
60.9700 1908.6375
60.9800 1756.7475
60.9900 1793.6350
61.0000 1840.0700
61.0100 1823.0700
61.0200 1763.1500
61.0300 1787.1175
61.0400 1732.3000
61.0500 1593.7550
61.0600 1757.1300
61.0700 1819.7375
61.0800 1709.8050
61.0900 1589.7500
61.1000 1580.2775
61.1100 1679.9450
61.1200 1650.0000
61.1300 1589.9225
61.1400 1540.0225
61.1500 1593.3350
61.1600 1570.0100
61.1700 1550.0000
61.1800 1550.0000
61.1900 1563.2925
61.2000 1530.1975
61.2100 1443.3625
61.2200 1493.0250
61.2300 1649.6100
61.2400 1723.5100
61.2500 1742.8950
61.2600 1714.2950
61.2700 1533.3325
61.2800 1566.3525
61.2900 1623.2650
61.3000 1573.9875
61.3100 1549.2275
61.3200 1669.7525
61.3300 1653.9425
61.3400 1596.4825
61.3500 1577.2450
61.3600 1523.2325
61.3700 1598.9400
61.3800 1647.5525
61.3900 1586.3200
61.4000 1649.3975
61.4100 1700.0000
61.4200 1706.5375
61.4300 1670.9425
61.4400 1586.9450
61.4500 1455.7875
61.4600 1355.0250
61.4700 1499.2300
61.4800 1576.0325
61.4900 1610.1625
61.5000 1632.4925
61.5100 1657.3600
61.5200 1525.8250
61.5300 1389.8175
61.5400 1412.9575
61.5500 1504.5525
61.5600 1616.6675
61.5700 1629.5975
61.5800 1688.7600
61.5900 1685.4475
61.6000 1538.1800
61.6100 1466.6675
61.6200 1492.4300
61.6300 1629.8750
61.6400 1770.4700
61.6500 1711.4400
61.6600 1592.2050
61.6700 1487.1650
61.6800 1671.8550
61.6900 1910.2975
61.7000 1702.6400
61.7100 1568.0100
61.7200 1548.6325
61.7300 1638.3300
61.7400 1751.0675
61.7500 1744.0325
61.7600 1587.2525
61.7700 1585.7725
61.7800 1648.4875
61.7900 1789.0325
61.8000 1907.9150
61.8100 1822.2175
61.8200 1667.5150
61.8300 1641.1175
61.8400 1784.9900
61.8500 1676.3575
61.8600 1640.2675
61.8700 1802.8650
61.8800 1847.1875
61.8900 1644.9725
61.9000 1537.8400
61.9100 1681.9250
61.9200 1829.2600
61.9300 1749.3225
61.9400 1602.1950
61.9500 1721.2925
61.9600 1816.4425
61.9700 1683.1475
61.9800 1606.2675
61.9900 1698.0950
62.0000 1852.1100
62.0100 1858.3175
62.0200 1785.4200
62.0300 1789.5350
62.0400 1908.2925
62.0500 1981.1750
62.0600 2070.7150
62.0700 2083.5300
62.0800 2080.8675
62.0900 2123.4300
62.1000 1892.1350
62.1100 1828.7300
62.1200 1945.7375
62.1300 1886.1100
62.1400 1886.2225
62.1500 2141.4150
62.1600 2121.5100
62.1700 2022.8450
62.1800 2020.9875
62.1900 1987.6650
62.2000 2009.8100
62.2100 2046.3825
62.2200 1952.5650
62.2300 1918.4475
62.2400 1986.8650
62.2500 2117.5325
62.2600 2153.5825
62.2700 2028.9275
62.2800 2025.5000
62.2900 1983.3325
62.3000 1873.2550
62.3100 1872.7650
62.3200 2077.8800
62.3300 1848.3625
62.3400 1810.5700
62.3500 1836.5500
62.3600 1930.4350
62.3700 1910.3475
62.3800 1740.7925
62.3900 1660.5950
62.4000 1650.0000
62.4100 1668.1900
62.4200 1693.9425
62.4300 1665.1725
62.4400 1669.6250
62.4500 1733.3325
62.4600 1769.5675
62.4700 1772.9900
62.4800 1666.6675
62.4900 1696.7900
62.5000 1713.8800
62.5100 1662.0300
62.5200 1701.3650
62.5300 1739.3400
62.5400 1629.9800
62.5500 1368.6975
62.5600 1409.1550
62.5700 1663.2675
62.5800 1710.6850
62.5900 1610.3425
62.6000 1438.0550
62.6100 1464.4075
62.6200 1609.6300
62.6300 1710.7075
62.6400 1670.2325
62.6500 1592.8725
62.6600 1591.6075
62.6700 1636.9700
62.6800 1553.6600
62.6900 1488.1400
62.7000 1508.1425
62.7100 1571.4925
62.7200 1632.8175
62.7300 1700.5825
62.7400 1555.9050
62.7500 1531.2600
62.7600 1478.4600
62.7700 1488.2175
62.7800 1531.4225
62.7900 1638.2350
62.8000 1575.5250
62.8100 1505.8725
62.8200 1469.7225
62.8300 1371.6075
62.8400 1361.7175
62.8500 1371.6250
62.8600 1350.0000
62.8700 1414.2875
62.8800 1521.6550
62.8900 1459.1550
62.9000 1412.4850
62.9100 1484.1425
62.9200 1563.2325
62.9300 1597.6575
62.9400 1505.8100
62.9500 1481.8275
62.9600 1428.2700
62.9700 1490.5800
62.9800 1636.1750
62.9900 1697.2150
63.0000 1520.4050
63.0100 1421.7775
63.0200 1405.7725
63.0300 1422.4350
63.0400 1479.4450
63.0500 1503.3150
63.0600 1423.6150
63.0700 1568.9975
63.0800 1567.8650
63.0900 1316.6675
63.1000 1356.8150
63.1100 1450.5250
63.1200 1460.4275
63.1300 1439.5525
63.1400 1574.8025
63.1500 1630.0475
63.1600 1439.9525
63.1700 1493.8550
63.1800 1512.6775
63.1900 1576.4000
63.2000 1449.6000
63.2100 1473.5050
63.2200 1628.7675
63.2300 1654.2475
63.2400 1539.0025
63.2500 1510.3450
63.2600 1472.9550
63.2700 1595.2450
63.2800 1756.7950
63.2900 1871.7700
63.3000 1720.7600
63.3100 1550.2450
63.3200 1555.1725
63.3300 1488.7450
63.3400 1472.2900
63.3500 1511.4250
63.3600 1650.8675
63.3700 1777.4050
63.3800 1638.3550
63.3900 1544.6625
63.4000 1572.0275
63.4100 1516.6675
63.4200 1511.0825
63.4300 1500.0000
63.4400 1561.3350
63.4500 1694.4750
63.4600 1711.1000
63.4700 1638.8175
63.4800 1550.0100
63.4900 1649.9825
63.5000 1700.0225
63.5100 1716.5575
63.5200 1733.5875
63.5300 1527.9300
63.5400 1477.6475
63.5500 1627.2525
63.5600 1783.5475
63.5700 1678.0600
63.5800 1655.1075
63.5900 1766.6675
63.6000 1651.1375
63.6100 1455.1425
63.6200 1599.2375
63.6300 1672.9725
63.6400 1528.0700
63.6500 1499.7675
63.6600 1478.5975
63.6700 1421.3550
63.6800 1604.3675
63.6900 1700.8650
63.7000 1529.0875
63.7100 1437.8350
63.7200 1566.3375
63.7300 1610.8825
63.7400 1638.7700
63.7500 1671.7275
63.7600 1640.6875
63.7700 1521.2900
63.7800 1610.8350
63.7900 1698.2925
63.8000 1757.6125
63.8100 1627.0200
63.8200 1721.1275
63.8300 1708.2900
63.8400 1511.2775
63.8500 1489.2300
63.8600 1445.1425
63.8700 1421.5050
63.8800 1466.6675
63.8900 1557.9050
63.9000 1755.3625
63.9100 1723.8050
63.9200 1590.5075
63.9300 1483.9550
63.9400 1482.0650
63.9500 1523.3025
63.9600 1407.9850
63.9700 1320.6450
63.9800 1437.2800
63.9900 1521.9875
64.0000 1448.2700
64.0100 1309.1625
64.0200 1431.8425
64.0300 1489.3950
64.0400 1519.6475
64.0500 1569.8125
64.0600 1443.9100
64.0700 1514.2250
64.0800 1627.2250
64.0900 1597.2475
64.1000 1520.2275
64.1100 1615.7975
64.1200 1592.1250
64.1300 1477.1800
64.1400 1494.7475
64.1500 1499.0775
64.1600 1533.3325
64.1700 1507.1400
64.1800 1491.8725
64.1900 1630.4000
64.2000 1759.4575
64.2100 1785.3450
64.2200 1669.7250
64.2300 1540.6100
64.2400 1519.7800
64.2500 1542.7750
64.2600 1458.2475
64.2700 1529.2275
64.2800 1452.2025
64.2900 1414.4375
64.3000 1504.0500
64.3100 1493.0750
64.3200 1361.4975
64.3300 1422.3225
64.3400 1624.6250
64.3500 1634.1575
64.3600 1465.4575
64.3700 1484.5575
64.3800 1480.8600
64.3900 1555.1375
64.4000 1551.2650
64.4100 1547.4450
64.4200 1550.0400
64.4300 1405.1200
64.4400 1437.1300
64.4500 1473.1100
64.4600 1506.1775
64.4700 1669.0525
64.4800 1678.6275
64.4900 1537.0400
64.5000 1603.6900
64.5100 1629.6625
64.5200 1583.3325
64.5300 1613.7875
64.5400 1663.0475
64.5500 1591.3325
64.5600 1513.0850
64.5700 1502.0700
64.5800 1568.1725
64.5900 1477.7975
64.6000 1390.3550
64.6100 1503.4925
64.6200 1509.7175
64.6300 1441.8200
64.6400 1545.2375
64.6500 1655.0225
64.6600 1581.3700
64.6700 1368.2950
64.6800 1333.3325
64.6900 1333.3325
64.7000 1363.3300
64.7100 1468.3000
64.7200 1564.9725
64.7300 1535.1800
64.7400 1368.3875
64.7500 1422.9250
64.7600 1628.3600
64.7700 1611.6975
64.7800 1604.9650
64.7900 1581.9500
64.8000 1549.5525
64.8100 1617.1600
64.8200 1509.8925
64.8300 1528.3925
64.8400 1496.9175
64.8500 1548.6600
64.8600 1719.2625
64.8700 1581.4400
64.8800 1641.2650
64.8900 1675.4225
64.9000 1557.7350
64.9100 1416.6675
64.9200 1411.7650
64.9300 1439.1825
64.9400 1489.2925
64.9500 1412.6675
64.9600 1522.4100
64.9700 1616.6675
64.9800 1636.1700
64.9900 1649.2350
65.0000 1547.2000
65.0100 1490.2750
65.0200 1447.2350
65.0300 1438.8300
65.0400 1538.1825
65.0500 1530.6200
65.0600 1502.6950
65.0700 1511.3100
65.0800 1445.6575
65.0900 1579.4250
65.1000 1704.3950
65.1100 1652.6075
65.1200 1700.0000
65.1300 1661.5200
65.1400 1566.6675
65.1500 1571.4675
65.1600 1621.7100
65.1700 1635.1900
65.1800 1380.6600
65.1900 1230.8650
65.2000 1197.6725
65.2100 1285.8625
65.2200 1426.2100
65.2300 1440.4675
65.2400 1435.7150
65.2500 1521.3975
65.2600 1569.1300
65.2700 1426.2525
65.2800 1409.3725
65.2900 1440.8150
65.3000 1335.2575
65.3100 1583.1250
65.3200 1652.4825
65.3300 1597.7725
65.3400 1540.5625
65.3500 1535.5275
65.3600 1573.9125
65.3700 1502.9375
65.3800 1383.3325
65.3900 1359.8450
65.4000 1271.8400
65.4100 1209.3775
65.4200 1238.0175
65.4300 1250.0000
65.4400 1254.6775
65.4500 1280.6825
65.4600 1335.3375
65.4700 1434.6325
65.4800 1585.3050
65.4900 1633.3325
65.5000 1582.1750
65.5100 1431.4150
65.5200 1411.1875
65.5300 1446.2300
65.5400 1419.5075
65.5500 1590.7400
65.5600 1520.4125
65.5700 1409.2425
65.5800 1521.0525
65.5900 1745.3875
65.6000 1701.0750
65.6100 1524.5850
65.6200 1264.9325
65.6300 1239.6450
65.6400 1336.7325
65.6500 1451.6825
65.6600 1500.0000
65.6700 1486.2625
65.6800 1482.0225
65.6900 1552.9550
65.7000 1452.7400
65.7100 1328.9525
65.7200 1481.9050
65.7300 1580.3275
65.7400 1625.7650
65.7500 1613.6375
65.7600 1534.8300
65.7700 1574.2600
65.7800 1518.2700
65.7900 1360.8775
65.8000 1180.2400
65.8100 1288.9900
65.8200 1510.4300
65.8300 1524.6800
65.8400 1366.6675
65.8500 1393.6875
65.8600 1448.6700
65.8700 1391.0100
65.8800 1353.1925
65.8900 1392.9450
65.9000 1595.5175
65.9100 1560.9400
65.9200 1495.5250
65.9300 1452.0400
65.9400 1326.4700
65.9500 1296.9850
65.9600 1561.2475
65.9700 1612.0700
65.9800 1363.2700
65.9900 1216.6675
66.0000 1216.6675
66.0100 1216.6675
66.0200 1265.4325
66.0300 1431.0050
66.0400 1521.0925
66.0500 1506.8075
66.0600 1397.9975
66.0700 1339.7150
66.0800 1450.0000
66.0900 1476.4275
66.1000 1558.8025
66.1100 1609.7125
66.1200 1670.1550
66.1300 1602.6150
66.1400 1485.9750
66.1500 1400.0000
66.1600 1360.6150
66.1700 1289.3500
66.1800 1360.6875
66.1900 1276.1850
66.2000 1358.7200
66.2100 1422.5375
66.2200 1485.4625
66.2300 1336.9575
66.2400 1343.4375
66.2500 1462.3275
66.2600 1397.9700
66.2700 1271.6600
66.2800 1367.9550
66.2900 1432.0775
66.3000 1298.7750
66.3100 1273.3675
66.3200 1470.3975
66.3300 1407.4875
66.3400 1354.8525
66.3500 1395.1675
66.3600 1354.8125
66.3700 1446.7100
66.3800 1559.0600
66.3900 1633.3325
66.4000 1646.1725
66.4100 1649.1275
66.4200 1541.4575
66.4300 1520.9350
66.4400 1477.9025
66.4500 1320.9275
66.4600 1367.3800
66.4700 1479.4225
66.4800 1542.1550
66.4900 1629.4000
66.5000 1603.0650
66.5100 1395.4850
66.5200 1354.4950
66.5300 1446.2650
66.5400 1567.1300
66.5500 1620.2400
66.5600 1504.4175
66.5700 1600.3675
66.5800 1598.9900
66.5900 1321.0250
66.6000 1362.3275
66.6100 1287.4100
66.6200 1266.7725
66.6300 1299.9100
66.6400 1304.4100
66.6500 1521.0250
66.6600 1670.8000
66.6700 1583.2500
66.6800 1433.3325
66.6900 1404.1725
66.7000 1320.8275
66.7100 1379.0725
66.7200 1491.7400
66.7300 1408.3650
66.7400 1395.7725
66.7500 1408.4775
66.7600 1333.3325
66.7700 1366.4125
66.7800 1483.1925
66.7900 1516.8250
66.8000 1454.2950
66.8100 1424.9050
66.8200 1445.8850
66.8300 1400.4375
66.8400 1287.6750
66.8500 1299.2525
66.8600 1437.6975
66.8700 1436.8700
66.8800 1525.4425
66.8900 1400.9300
66.9000 1270.4275
66.9100 1353.7400
66.9200 1412.5900
66.9300 1391.8525
66.9400 1395.1575
66.9500 1454.8675
66.9600 1374.7925
66.9700 1436.5300
66.9800 1545.9450
66.9900 1504.9750
67.0000 1420.7150
67.0100 1441.4200
67.0200 1454.5475
67.0300 1400.5225
67.0400 1333.8700
67.0500 1335.7075
67.0600 1487.9250
67.0700 1421.8500
67.0800 1337.3500
67.0900 1350.0000
67.1000 1345.9900
67.1100 1345.3525
67.1200 1403.3475
67.1300 1466.6675
67.1400 1430.7100
67.1500 1352.5900
67.1600 1450.7150
67.1700 1396.0150
67.1800 1395.2750
67.1900 1417.4250
67.2000 1386.5325
67.2100 1453.9700
67.2200 1438.9075
67.2300 1357.9250
67.2400 1383.3325
67.2500 1347.7400
67.2600 1237.2850
67.2700 1261.8425
67.2800 1311.8325
67.2900 1326.3600
67.3000 1277.5550
67.3100 1362.7350
67.3200 1350.0000
67.3300 1389.2550
67.3400 1516.6675
67.3500 1481.4025
67.3600 1331.4350
67.3700 1283.1550
67.3800 1531.2600
67.3900 1613.8150
67.4000 1565.6000
67.4100 1608.8725
67.4200 1548.2950
67.4300 1398.3275
67.4400 1287.2200
67.4500 1338.8225
67.4600 1451.1525
67.4700 1423.2500
67.4800 1488.3850
67.4900 1426.7925
67.5000 1346.1350
67.5100 1352.6375
67.5200 1416.6675
67.5300 1385.8350
67.5400 1287.1825
67.5500 1284.6125
67.5600 1244.8625
67.5700 1340.9275
67.5800 1517.9875
67.5900 1455.1675
67.6000 1397.5200
67.6100 1390.7175
67.6200 1579.5100
67.6300 1532.3000
67.6400 1416.6675
67.6500 1450.9700
67.6600 1517.1600
67.6700 1353.8050
67.6800 1343.8600
67.6900 1281.8575
67.7000 1371.2750
67.7100 1473.4650
67.7200 1394.6950
67.7300 1471.1700
67.7400 1573.5375
67.7500 1498.4400
67.7600 1538.6800
67.7700 1503.7700
67.7800 1505.3675
67.7900 1466.6675
67.8000 1523.0625
67.8100 1679.1050
67.8200 1531.2350
67.8300 1489.1625
67.8400 1577.9050
67.8500 1635.3800
67.8600 1677.5650
67.8700 1622.4150
67.8800 1737.3250
67.8900 1810.7325
67.9000 1657.6475
67.9100 1811.1675
67.9200 1771.9050
67.9300 1518.5775
67.9400 1557.3475
67.9500 1481.5025
67.9600 1570.3875
67.9700 1711.1050
67.9800 1757.3975
67.9900 1750.0750
68.0000 1603.7975
68.0100 1500.0000
68.0200 1514.7425
68.0300 1614.5325
68.0400 1742.8675
68.0500 1544.8700
68.0600 1327.9675
68.0700 1319.7050
68.0800 1552.0050
68.0900 1540.2825
68.1000 1650.4025
68.1100 1511.4000
68.1200 1433.3325
68.1300 1455.2275
68.1400 1573.4350
68.1500 1702.0975
68.1600 1624.5250
68.1700 1529.6975
68.1800 1516.6675
68.1900 1520.2950
68.2000 1518.8275
68.2100 1466.6675
68.2200 1470.2875
68.2300 1501.4150
68.2400 1512.4675
68.2500 1327.4975
68.2600 1420.7675
68.2700 1587.8375
68.2800 1504.9350
68.2900 1547.3625
68.3000 1402.2900
68.3100 1414.6325
68.3200 1639.2375
68.3300 1589.2475
68.3400 1507.0250
68.3500 1371.4675
68.3600 1450.0000
68.3700 1460.7150
68.3800 1510.7050
68.3900 1539.3050
68.4000 1492.8750
68.4100 1498.6975
68.4200 1606.0000
68.4300 1513.3750
68.4400 1313.1175
68.4500 1328.3725
68.4600 1461.6800
68.4700 1513.5625
68.4800 1330.8150
68.4900 1401.0025
68.5000 1441.9500
68.5100 1357.0550
68.5200 1383.3325
68.5300 1411.5075
68.5400 1495.5550
68.5500 1413.1500
68.5600 1403.5125
68.5700 1434.2125
68.5800 1464.9375
68.5900 1329.8300
68.6000 1330.6675
68.6100 1362.3500
68.6200 1279.8400
68.6300 1301.5775
68.6400 1415.8925
68.6500 1356.9700
68.6600 1390.2975
68.6700 1395.7925
68.6800 1347.9500
68.6900 1438.8825
68.7000 1326.3925
68.7100 1331.2025
68.7200 1443.0725
68.7300 1433.9725
68.7400 1486.1675
68.7500 1405.6925
68.7600 1324.1650
68.7700 1416.6675
68.7800 1406.3275
68.7900 1339.1225
68.8000 1243.6550
68.8100 1283.3325
68.8200 1273.0300
68.8300 1216.1775
68.8400 1204.8550
68.8500 1399.5400
68.8600 1305.9525
68.8700 1230.7775
68.8800 1346.5825
68.8900 1350.4025
68.9000 1382.5575
68.9100 1280.6725
68.9200 1338.7075
68.9300 1123.8150
68.9400 1203.0700
68.9500 1153.3975
68.9600 1187.0275
68.9700 1276.8400
68.9800 1313.2800
68.9900 1313.5400
69.0000 1366.6675
69.0100 1380.1850
69.0200 1399.5675
69.0300 1270.0400
69.0400 1296.8175
69.0500 1343.2650
69.0600 1306.5700
69.0700 1283.4800
69.0800 1346.6400
69.0900 1313.1925
69.1000 1223.2700
69.1100 1210.1425
69.1200 1336.7575
69.1300 1450.1225
69.1400 1549.9050
69.1500 1396.6250
69.1600 1350.0400
69.1700 1469.9950
69.1800 1406.6700
69.1900 1376.6550
69.2000 1433.2975
69.2100 1496.6775
69.2200 1460.0875
69.2300 1386.5750
69.2400 1460.0350
69.2500 1403.5175
69.2600 1296.5725
69.2700 1340.0775
69.2800 1323.1325
69.2900 1403.4600
69.3000 1333.5050
69.3100 1233.7000
69.3200 1146.1150
69.3300 1300.4200
69.3400 1192.9750
69.3500 1323.0000
69.3600 1396.9675
69.3700 1333.0700
69.3800 1396.7225
69.3900 1380.0575
69.4000 1383.0300
69.4100 1378.0600
69.4200 1112.7400
69.4300 1282.3050
69.4400 1463.7600
69.4500 1389.8525
69.4600 1403.6400
69.4700 1369.5250
69.4800 1466.2575
69.4900 1468.3500
69.5000 1203.2475
69.5100 1252.3500
69.5200 1390.2750
69.5300 1401.8200
69.5400 1584.3050
69.5500 1433.8325
69.5600 1379.5900
69.5700 1420.4200
69.5800 1363.4400
69.5900 1337.1075
69.6000 1302.6575
69.6100 1367.2425
69.6200 1312.8625
69.6300 1376.3075
69.6400 1410.2450
69.6500 1376.9175
69.6600 1343.5875
69.6700 1332.6825
69.6800 1390.3975
69.6900 1362.7925
69.7000 1413.4700
69.7100 1403.1925
69.7200 1400.7125
69.7300 1352.4625
69.7400 1430.1475
69.7500 1410.3000
69.7600 1399.2375
69.7700 1457.1325
69.7800 1394.4350
69.7900 1296.8275
69.8000 1296.0175
69.8100 1350.0000
69.8200 1346.8350
69.8300 1330.1700
69.8400 1329.3125
69.8500 1367.5400
69.8600 1293.6875
69.8700 1288.7450
69.8800 1367.5750
69.8900 1331.4925
69.9000 1454.0800
69.9100 1412.5775
69.9200 1450.9575
69.9300 1373.9150
69.9400 1336.4700
69.9500 1365.6750
69.9600 1405.1400
69.9700 1283.3325
69.9800 1273.9500
69.9900 1258.3375
70.0000 1347.9275
